2.500000000000000000e-01,4.260338181172957372e-01
5.000000000000000000e-01,3.932904794856134645e-01
7.500000000000000000e-01,-4.790596891386411094e-01
1.000000000000000000e+00,-5.696638739000323692e-01
1.250000000000000000e+00,9.449432386237993642e-01
1.500000000000000000e+00,2.841994215330397311e-01
1.750000000000000000e+00,-4.304854820970065443e-01
2.000000000000000000e+00,-5.477937315875230917e-01
2.250000000000000000e+00,8.652365473017620268e-01
2.500000000000000000e+00,4.195634186321481329e-01
2.750000000000000000e+00,-5.587555140613020832e-01
3.000000000000000000e+00,-4.192333384422631815e-01
3.250000000000000000e+00,8.380396803518574966e-01
3.500000000000000000e+00,6.128055183346712287e-01
3.750000000000000000e+00,-6.253620246196114341e-01
4.000000000000000000e+00,-6.628662832326199794e-01
4.250000000000000000e+00,7.251355628271600740e-01
4.500000000000000000e+00,2.210528204038150757e-01
4.750000000000000000e+00,-7.294858959264315379e-01
5.000000000000000000e+00,-4.575963927589619673e-01
5.250000000000000000e+00,6.001987605647584045e-01
5.500000000000000000e+00,4.869153397384899384e-01
5.750000000000000000e+00,-9.950261926065766538e-01
6.000000000000000000e+00,-7.712097371912252086e-01
6.250000000000000000e+00,4.757641287579255085e-01
6.500000000000000000e+00,4.997957268897301741e-01
6.750000000000000000e+00,-9.429506523453639044e-01
7.000000000000000000e+00,-9.145789373947351697e-01
7.250000000000000000e+00,9.195372483534556274e-01
7.500000000000000000e+00,4.388956285824470172e-01
7.750000000000000000e+00,-1.130800959741496969e+00
8.000000000000000000e+00,-4.442060378000959875e-01
8.250000000000000000e+00,1.108586112152883052e+00
8.500000000000000000e+00,9.033314904811510226e-01
8.750000000000000000e+00,-8.597800426806042617e-01
9.000000000000000000e+00,-5.939666186338321552e-01
9.250000000000000000e+00,1.097056197453668780e+00
9.500000000000000000e+00,5.323870115696102134e-01
9.750000000000000000e+00,-9.560555882821666351e-01
1.000000000000000000e+01,-5.358146950861651936e-01
1.025000000000000000e+01,7.214395003000360074e-01
1.050000000000000000e+01,3.710983201742203974e-01
1.075000000000000000e+01,-6.380634559693458829e-01
1.100000000000000000e+01,-5.628863753357518096e-01
1.125000000000000000e+01,1.020898504275952190e+00
1.150000000000000000e+01,3.562881232880877880e-01
1.175000000000000000e+01,-6.334155764340185790e-01
1.200000000000000000e+01,-3.596579054559344568e-01
1.225000000000000000e+01,5.387487103463678428e-01
1.250000000000000000e+01,5.597363476056007592e-01
1.275000000000000000e+01,-5.602218273184758068e-01
1.300000000000000000e+01,-2.103451297174643297e-01
1.325000000000000000e+01,4.791528206382760224e-01
1.350000000000000000e+01,4.680598935426636409e-01
1.375000000000000000e+01,-5.735606243152175931e-01
1.400000000000000000e+01,-5.825628521247436797e-01
1.425000000000000000e+01,6.234124693463644062e-01
1.450000000000000000e+01,6.438361286736830058e-01
1.475000000000000000e+01,-7.424006717993483218e-01
1.500000000000000000e+01,-4.101013677845629646e-01
1.525000000000000000e+01,6.907430139802808178e-01
1.550000000000000000e+01,5.399020791004027764e-01
1.575000000000000000e+01,-5.628959022481839769e-01
1.600000000000000000e+01,-8.631453718401932429e-01
1.625000000000000000e+01,5.422840983481287402e-01
1.650000000000000000e+01,5.787886543941560547e-01
1.675000000000000000e+01,-8.245898369128890071e-01
1.700000000000000000e+01,-9.227525036361260424e-01
1.725000000000000000e+01,1.035892444406991686e+00
1.750000000000000000e+01,2.873240624261834131e-01
1.775000000000000000e+01,-1.113651476291388498e+00
1.800000000000000000e+01,-3.239778460506275160e-01
1.825000000000000000e+01,6.590185622015142242e-01
1.850000000000000000e+01,9.812914751599546292e-01
1.875000000000000000e+01,-8.568632085968672651e-01
1.900000000000000000e+01,-6.622633228225793811e-01
1.925000000000000000e+01,8.415675718025514840e-01
1.950000000000000000e+01,6.653364915166387616e-01
1.975000000000000000e+01,-8.383175029007963186e-01
2.000000000000000000e+01,-9.533698098505891672e-01
2.025000000000000000e+01,6.132299054146113093e-01
2.050000000000000000e+01,5.490028381822561476e-01
2.075000000000000000e+01,-9.103452996025199750e-01
2.100000000000000000e+01,-8.624557931863202631e-01
2.125000000000000000e+01,5.717091610432505355e-01
2.150000000000000000e+01,5.872258519182430581e-01
2.175000000000000000e+01,-1.045803558873934724e+00
2.200000000000000000e+01,-5.720388128717908138e-01
2.225000000000000000e+01,9.121792406119879626e-01
2.250000000000000000e+01,5.218042377472954518e-01
2.275000000000000000e+01,-7.333648638651610874e-01
2.300000000000000000e+01,-5.096866835720442745e-01
2.325000000000000000e+01,9.327374908095665829e-01
2.350000000000000000e+01,4.466481407113501723e-01
2.375000000000000000e+01,-4.362710687439046442e-01
2.400000000000000000e+01,-4.803722292496960811e-01
2.425000000000000000e+01,9.036107988365108534e-01
2.450000000000000000e+01,5.990849902077982625e-01
2.475000000000000000e+01,-7.173464235668484124e-01
2.500000000000000000e+01,-3.553719729397610272e-01
2.525000000000000000e+01,6.415967969755735911e-01
2.550000000000000000e+01,4.747314168072552798e-01
2.575000000000000000e+01,-8.099795986514103374e-01
2.600000000000000000e+01,-6.255599606237198795e-01
2.625000000000000000e+01,4.285830020655465034e-01
2.650000000000000000e+01,3.808398723870269897e-01
2.675000000000000000e+01,-7.556202919480274893e-01
2.700000000000000000e+01,-6.070709997306388273e-01
2.725000000000000000e+01,6.391178155287755569e-01
2.750000000000000000e+01,5.190440039583672505e-01
2.775000000000000000e+01,-5.775947976115317628e-01
2.800000000000000000e+01,-7.025825777223498880e-01
2.825000000000000000e+01,1.200603098292509774e+00
2.850000000000000000e+01,4.578863838660229280e-01
2.875000000000000000e+01,-7.755090537137342421e-01
2.900000000000000000e+01,-6.164070488611083087e-01
2.925000000000000000e+01,9.769113327564054039e-01
2.950000000000000000e+01,6.303810166558639905e-01
2.975000000000000000e+01,-1.012064419883817568e+00
3.000000000000000000e+01,-4.568609388703429586e-01
3.025000000000000000e+01,8.998324713119191243e-01
3.050000000000000000e+01,9.154220288437118214e-01
3.075000000000000000e+01,-7.327870711625700251e-01
3.100000000000000000e+01,-7.293908261627453093e-01
3.125000000000000000e+01,1.128057956860408328e+00
3.150000000000000000e+01,6.909128346714760172e-01
3.175000000000000000e+01,-9.144696537420252680e-01
3.200000000000000000e+01,-4.904170981261246620e-01
3.225000000000000000e+01,8.962153426956525060e-01
3.250000000000000000e+01,3.126043684603579953e-01
3.275000000000000000e+01,-5.556512536305994177e-01
3.300000000000000000e+01,-4.145547712495062376e-01
3.325000000000000000e+01,6.000964721538033508e-01
3.350000000000000000e+01,7.064790691448982196e-01
3.375000000000000000e+01,-5.881211388767429993e-01
3.400000000000000000e+01,-6.724402540843255061e-01
3.425000000000000000e+01,8.313780552465276363e-01
3.450000000000000000e+01,7.381261064529797133e-01
3.475000000000000000e+01,-8.631518440954613069e-01
3.500000000000000000e+01,-5.394456660128040815e-01
3.525000000000000000e+01,8.954150668628777510e-01
3.550000000000000000e+01,6.958824644516116154e-01
3.575000000000000000e+01,-8.051179938387813539e-01
3.600000000000000000e+01,-4.425452004028381237e-01
3.625000000000000000e+01,6.972018099540463476e-01
3.650000000000000000e+01,4.611304961077364872e-01
3.675000000000000000e+01,-6.763257605372164916e-01
3.700000000000000000e+01,-5.054531566087799854e-01
3.725000000000000000e+01,5.542790523890935850e-01
3.750000000000000000e+01,4.055126523588239440e-01
3.775000000000000000e+01,-7.779509395724425458e-01
3.800000000000000000e+01,-6.712223682472411301e-01
3.825000000000000000e+01,5.357820241049592314e-01
3.850000000000000000e+01,5.289075984064124381e-01
3.875000000000000000e+01,-7.637430445888867547e-01
3.900000000000000000e+01,-4.491674051980880100e-01
3.925000000000000000e+01,7.500233455321473341e-01
3.950000000000000000e+01,4.197556147977056229e-01
3.975000000000000000e+01,-7.163121802239581504e-01
4.000000000000000000e+01,-4.535588074842444861e-01
4.025000000000000000e+01,7.623965975407099860e-01
4.050000000000000000e+01,6.536547916655052193e-01
4.075000000000000000e+01,-5.142090816897950667e-01
4.100000000000000000e+01,-5.836274051739734903e-01
4.125000000000000000e+01,7.376288131703404582e-01
4.150000000000000000e+01,7.258028710742777667e-01
4.175000000000000000e+01,-9.441781491561138662e-01
4.200000000000000000e+01,-7.250132802370302665e-01
4.225000000000000000e+01,9.804033684302480012e-01
4.250000000000000000e+01,4.982080436191531070e-01
4.275000000000000000e+01,-7.839735025475434993e-01
4.300000000000000000e+01,-7.247447526696884079e-01
4.325000000000000000e+01,6.261899380684412542e-01
4.350000000000000000e+01,4.843822075263736204e-01
4.375000000000000000e+01,-7.038211540492224083e-01
4.400000000000000000e+01,-4.600293028750196966e-01
4.425000000000000000e+01,7.778080443310387837e-01
4.450000000000000000e+01,5.592520343233463587e-01
4.475000000000000000e+01,-6.609711430966075385e-01
4.500000000000000000e+01,-4.770850116579424260e-01
4.525000000000000000e+01,6.856950762877397354e-01
4.550000000000000000e+01,6.897991195812739340e-01
4.575000000000000000e+01,-8.163353776765861491e-01
4.600000000000000000e+01,-8.230211724469965739e-01
4.625000000000000000e+01,1.058528059015750644e+00
4.650000000000000000e+01,7.705818402031461289e-01
4.675000000000000000e+01,-1.000138286009944810e+00
4.700000000000000000e+01,-8.521231187460182044e-01
4.725000000000000000e+01,9.031160538529717785e-01
4.750000000000000000e+01,7.245167594604867700e-01
4.775000000000000000e+01,-1.004474641091712916e+00
4.800000000000000000e+01,-6.545908530385287083e-01
4.825000000000000000e+01,9.471049974600591614e-01
4.850000000000000000e+01,4.818865089101267984e-01
4.875000000000000000e+01,-6.276293717152434670e-01
4.900000000000000000e+01,-5.200104620077846684e-01
4.925000000000000000e+01,4.850258523579012437e-01
4.950000000000000000e+01,5.866746355853819095e-01
4.975000000000000000e+01,-5.573972606657829898e-01
5.000000000000000000e+01,-4.457193665868641186e-01
5.025000000000000000e+01,8.036908022672145657e-01
5.050000000000000000e+01,3.477442529720626285e-01
5.075000000000000000e+01,-7.578716358374351092e-01
5.100000000000000000e+01,-3.636753927565518629e-01
5.125000000000000000e+01,7.100880466335806052e-01
5.150000000000000000e+01,5.758718829978258791e-01
5.175000000000000000e+01,-8.627082942925090592e-01
5.200000000000000000e+01,-3.637562752239775210e-01
5.225000000000000000e+01,6.156826207287385833e-01
5.250000000000000000e+01,6.828975555290675015e-01
5.275000000000000000e+01,-9.576084822149436571e-01
5.300000000000000000e+01,-6.545845206194693677e-01
5.325000000000000000e+01,5.399983946125118672e-01
5.350000000000000000e+01,4.437636889107745009e-01
5.375000000000000000e+01,-4.060472875195372811e-01
5.400000000000000000e+01,-5.403605578897786588e-01
5.425000000000000000e+01,8.020888914890123012e-01
5.450000000000000000e+01,3.420409556567006737e-01
5.475000000000000000e+01,-6.678591954605894720e-01
5.500000000000000000e+01,-6.962196479197135801e-01
5.525000000000000000e+01,1.155789527161700248e+00
5.550000000000000000e+01,6.505248987778591285e-01
5.575000000000000000e+01,-9.414799515611518288e-01
5.600000000000000000e+01,-4.155672941774755103e-01
5.625000000000000000e+01,5.756064706751040649e-01
5.650000000000000000e+01,5.744582361979434504e-01
5.675000000000000000e+01,-6.038660937035081888e-01
5.700000000000000000e+01,-7.150489884105988292e-01
5.725000000000000000e+01,1.108218192441313033e+00
5.750000000000000000e+01,5.079970195285881118e-01
5.775000000000000000e+01,-5.246851850414137042e-01
5.800000000000000000e+01,-4.770152816176215782e-01
5.825000000000000000e+01,8.070995172321537847e-01
5.850000000000000000e+01,4.651086242192355447e-01
5.875000000000000000e+01,-5.414727547538639163e-01
5.900000000000000000e+01,-4.369008261242911528e-01
5.925000000000000000e+01,5.323788043200891051e-01
5.950000000000000000e+01,4.381140382932988131e-01
5.975000000000000000e+01,-6.039141332392424788e-01
6.000000000000000000e+01,-4.947420312114845786e-01
6.025000000000000000e+01,6.296048190821893487e-01
6.050000000000000000e+01,7.360868657295063233e-01
6.075000000000000000e+01,-7.592609934142861006e-01
6.100000000000000000e+01,-5.732805125797741930e-01
6.125000000000000000e+01,7.735715921553054653e-01
6.150000000000000000e+01,4.961400314674322409e-01
6.175000000000000000e+01,-7.118802738425071830e-01
6.200000000000000000e+01,-3.100436006988040449e-01
6.225000000000000000e+01,4.901283908251855559e-01
6.250000000000000000e+01,4.747364096355286556e-01
6.275000000000000000e+01,-6.886663242081378922e-01
6.300000000000000000e+01,-3.463929523535645982e-01
6.325000000000000000e+01,5.047477683710115404e-01
6.350000000000000000e+01,3.449193119386664286e-01
6.375000000000000000e+01,-5.497851509952733640e-01
6.400000000000000000e+01,-3.752418440271208522e-01
6.425000000000000000e+01,6.475474492142827554e-01
6.450000000000000000e+01,4.118367709524430875e-01
6.475000000000000000e+01,-6.916468339741064231e-01
6.500000000000000000e+01,-3.989778387875910770e-01
6.525000000000000000e+01,6.942817472331965778e-01
6.550000000000000000e+01,6.916481002545662449e-01
6.575000000000000000e+01,-5.434945869064076174e-01
6.600000000000000000e+01,-7.071903064997073773e-01
6.625000000000000000e+01,6.972953846570586478e-01
6.650000000000000000e+01,6.444397659501132081e-01
6.675000000000000000e+01,-5.121232511512056051e-01
6.700000000000000000e+01,-4.210006623889059330e-01
6.725000000000000000e+01,8.781886812214599880e-01
6.750000000000000000e+01,3.793094645177308988e-01
6.775000000000000000e+01,-9.191602007358992132e-01
6.800000000000000000e+01,-3.797072748758882899e-01
6.825000000000000000e+01,7.289090269545064338e-01
6.850000000000000000e+01,7.719973493417238153e-01
6.875000000000000000e+01,-8.533125661998406386e-01
6.900000000000000000e+01,-4.954918641258216350e-01
6.925000000000000000e+01,1.014744742158191881e+00
6.950000000000000000e+01,6.274894829500328175e-01
6.975000000000000000e+01,-6.406709411034232637e-01
7.000000000000000000e+01,-5.675619268119816985e-01
7.025000000000000000e+01,5.133322369169859289e-01
7.050000000000000000e+01,6.331472505341353418e-01
7.075000000000000000e+01,-8.334765547631886040e-01
7.100000000000000000e+01,-4.630753927416721982e-01
7.125000000000000000e+01,8.948484801114728882e-01
7.150000000000000000e+01,3.931125088579517923e-01
7.175000000000000000e+01,-6.725718565991916087e-01
7.200000000000000000e+01,-6.086535502828621658e-01
7.225000000000000000e+01,7.197413279264841535e-01
7.250000000000000000e+01,7.542931486638794203e-01
7.275000000000000000e+01,-8.133211997923229797e-01
7.300000000000000000e+01,-6.490880523259939805e-01
7.325000000000000000e+01,9.047359128203229517e-01
7.350000000000000000e+01,6.971894299794670902e-01
7.375000000000000000e+01,-9.055963581356066827e-01
7.400000000000000000e+01,-9.673405912332111445e-01
7.425000000000000000e+01,1.006599713476640234e+00
7.450000000000000000e+01,9.305502752862547799e-01
7.475000000000000000e+01,-1.248279849828161092e+00
7.500000000000000000e+01,-5.240175087452061398e-01
7.525000000000000000e+01,9.284008787612099134e-01
7.550000000000000000e+01,1.031148891739174678e+00
7.575000000000000000e+01,-1.170312166726549918e+00
7.600000000000000000e+01,-7.424209440130951076e-01
7.625000000000000000e+01,9.152874296769132334e-01
7.650000000000000000e+01,6.364169380550894761e-01
7.675000000000000000e+01,-1.147694006581633897e+00
7.700000000000000000e+01,-7.919021795170491096e-01
7.725000000000000000e+01,8.751434259510502134e-01
7.750000000000000000e+01,7.129743733590051535e-01
7.775000000000000000e+01,-7.566329885153428858e-01
7.800000000000000000e+01,-4.042099763052000028e-01
7.825000000000000000e+01,7.787370689764331333e-01
7.850000000000000000e+01,6.637910693984608868e-01
7.875000000000000000e+01,-1.108241718532150921e+00
7.900000000000000000e+01,-7.031096167344936809e-01
7.925000000000000000e+01,9.234682285602728857e-01
7.950000000000000000e+01,2.879303591660270500e-01
7.975000000000000000e+01,-8.654729634416022943e-01
8.000000000000000000e+01,-4.189760230954095444e-01
8.025000000000000000e+01,4.903508261706405746e-01
8.050000000000000000e+01,3.288134572313035631e-01
8.075000000000000000e+01,-5.615497788726384609e-01
8.100000000000000000e+01,-5.297887849723544873e-01
8.125000000000000000e+01,6.383966764206651101e-01
8.150000000000000000e+01,5.912140461646175904e-01
8.175000000000000000e+01,-7.404118580920587833e-01
8.200000000000000000e+01,-8.837172896379401621e-01
8.225000000000000000e+01,8.003103007077569941e-01
8.250000000000000000e+01,4.926288727470584106e-01
8.275000000000000000e+01,-5.418033202488292677e-01
8.300000000000000000e+01,-6.320125828963809589e-01
8.325000000000000000e+01,5.882789878405344508e-01
8.350000000000000000e+01,2.445353541237045847e-01
8.375000000000000000e+01,-6.782018476856744860e-01
8.400000000000000000e+01,-6.227251362372100418e-01
8.425000000000000000e+01,6.955203108735062978e-01
8.450000000000000000e+01,8.139264256222850102e-01
8.475000000000000000e+01,-8.186604158156312039e-01
8.500000000000000000e+01,-6.242837976197372907e-01
8.525000000000000000e+01,6.342075903849548890e-01
8.550000000000000000e+01,7.375112249942364917e-01
8.575000000000000000e+01,-7.201005013114423203e-01
8.600000000000000000e+01,-5.296060599707265171e-01
8.625000000000000000e+01,6.884509175702016037e-01
8.650000000000000000e+01,4.032599367738986529e-01
8.675000000000000000e+01,-9.871832597489617056e-01
8.700000000000000000e+01,-5.023408980913666166e-01
8.725000000000000000e+01,6.078835081638894744e-01
8.750000000000000000e+01,6.476366843981185006e-01
8.775000000000000000e+01,-6.061810982136343062e-01
8.800000000000000000e+01,-7.941252414810316962e-01
8.825000000000000000e+01,8.893136062979333234e-01
8.850000000000000000e+01,5.054897098074530026e-01
8.875000000000000000e+01,-3.844379328546366215e-01
8.900000000000000000e+01,-5.660652585972086870e-01
8.925000000000000000e+01,8.797951971880092481e-01
8.950000000000000000e+01,5.564788726239269234e-01
8.975000000000000000e+01,-6.968992074878591625e-01
9.000000000000000000e+01,-5.548910045270033509e-01
9.025000000000000000e+01,8.115741818276539510e-01
9.050000000000000000e+01,4.787522618050499279e-01
9.075000000000000000e+01,-1.033312713823617557e+00
9.100000000000000000e+01,-8.965600340536914459e-01
9.125000000000000000e+01,1.087656785415890281e+00
9.150000000000000000e+01,6.774283406104575356e-01
9.175000000000000000e+01,-8.740522291447327952e-01
9.200000000000000000e+01,-6.013436036128442241e-01
9.225000000000000000e+01,9.451386772900842725e-01
9.250000000000000000e+01,6.436382419312567382e-01
9.275000000000000000e+01,-8.480990680572243479e-01
9.300000000000000000e+01,-8.137350610644470406e-01
9.325000000000000000e+01,1.063919350359020077e+00
9.350000000000000000e+01,7.068880993321716710e-01
9.375000000000000000e+01,-8.121372507481154912e-01
9.400000000000000000e+01,-5.906218763516007941e-01
9.425000000000000000e+01,8.210899699477702818e-01
9.450000000000000000e+01,4.829186546980568928e-01
9.475000000000000000e+01,-9.122071478424079727e-01
9.500000000000000000e+01,-6.596311250514744762e-01
9.525000000000000000e+01,8.638264382289623233e-01
9.550000000000000000e+01,5.603569038201641206e-01
9.575000000000000000e+01,-1.055731904179816771e+00
9.600000000000000000e+01,-4.425580591010399578e-01
9.625000000000000000e+01,6.181642804751110720e-01
9.650000000000000000e+01,5.908586949435077340e-01
9.675000000000000000e+01,-8.376988871584122309e-01
9.700000000000000000e+01,-3.551133771932934446e-01
9.725000000000000000e+01,5.659749552911155224e-01
9.750000000000000000e+01,4.269682618889995007e-01
9.775000000000000000e+01,-6.581616946806425617e-01
9.800000000000000000e+01,-6.031144311216634080e-01
9.825000000000000000e+01,7.860829169022731655e-01
9.850000000000000000e+01,4.535481548742891222e-01
9.875000000000000000e+01,-6.698204412185423395e-01
9.900000000000000000e+01,-3.742020265168255477e-01
9.925000000000000000e+01,6.824227550037659240e-01
9.950000000000000000e+01,4.834365526133597157e-01
9.975000000000000000e+01,-7.505149229213926576e-01
1.000000000000000000e+02,-3.467569150513493681e-01
1.002500000000000000e+02,5.096819973360713352e-01
1.005000000000000000e+02,4.387381555334171623e-01
1.007500000000000000e+02,-6.417783830207580698e-01
1.010000000000000000e+02,-3.861277831216251011e-01
1.012500000000000000e+02,5.564117374704740104e-01
1.015000000000000000e+02,3.913054904517859756e-01
1.017500000000000000e+02,-8.501748830451443251e-01
1.020000000000000000e+02,-5.362606366372304478e-01
1.022500000000000000e+02,8.899491382752884316e-01
1.025000000000000000e+02,6.578796260490022973e-01
1.027500000000000000e+02,-5.649393165603669997e-01
1.030000000000000000e+02,-3.213288955892740217e-01
1.032500000000000000e+02,8.082882754791959057e-01
1.035000000000000000e+02,8.066208734343064402e-01
1.037500000000000000e+02,-5.983729845193126451e-01
1.040000000000000000e+02,-3.073772227916113930e-01
1.042500000000000000e+02,5.154861420042816667e-01
1.045000000000000000e+02,4.977823960786850188e-01
1.047500000000000000e+02,-5.468308936610343229e-01
1.050000000000000000e+02,-3.615117319364229975e-01
1.052500000000000000e+02,7.355100902038300692e-01
1.055000000000000000e+02,5.007122166298253463e-01
1.057500000000000000e+02,-6.106086193550048780e-01
1.060000000000000000e+02,-4.474170974489566910e-01
1.062500000000000000e+02,6.611506077209167165e-01
1.065000000000000000e+02,6.964306149520411715e-01
1.067500000000000000e+02,-7.724519968409266912e-01
1.070000000000000000e+02,-3.864260356092719118e-01
1.072500000000000000e+02,8.593064136950114840e-01
1.075000000000000000e+02,7.957827170897452396e-01
1.077500000000000000e+02,-5.968290341168147606e-01
1.080000000000000000e+02,-7.422794595795129124e-01
1.082500000000000000e+02,7.953616902854334647e-01
1.085000000000000000e+02,6.266424871248649220e-01
1.087500000000000000e+02,-6.972584007042095244e-01
1.090000000000000000e+02,-4.198239056098329036e-01
1.092500000000000000e+02,7.364446697726499957e-01
1.095000000000000000e+02,6.475944585110574581e-01
1.097500000000000000e+02,-7.374654824996860203e-01
1.100000000000000000e+02,-4.565911471790523590e-01
1.102500000000000000e+02,7.552664012607800403e-01
1.105000000000000000e+02,4.412242321811576384e-01
1.107500000000000000e+02,-7.289955461443894391e-01
1.110000000000000000e+02,-4.313610570244362785e-01
1.112500000000000000e+02,9.576115035116029572e-01
1.115000000000000000e+02,6.697343199693174265e-01
1.117500000000000000e+02,-8.762214411954767357e-01
1.120000000000000000e+02,-8.011184252602958633e-01
1.122500000000000000e+02,8.316522595979468635e-01
1.125000000000000000e+02,6.739626887144190004e-01
1.127500000000000000e+02,-7.294200062196591894e-01
1.130000000000000000e+02,-4.148493841674680827e-01
1.132500000000000000e+02,6.948952153503404894e-01
1.135000000000000000e+02,3.440497931025728873e-01
1.137500000000000000e+02,-8.102248051891240976e-01
1.140000000000000000e+02,-9.557766706193122630e-01
1.142500000000000000e+02,7.127620260524120122e-01
1.145000000000000000e+02,4.420406141873679529e-01
1.147500000000000000e+02,-9.055648784915397709e-01
1.150000000000000000e+02,-6.158452919621407728e-01
1.152500000000000000e+02,7.580160953445559402e-01
1.155000000000000000e+02,4.494819433358376859e-01
1.157500000000000000e+02,-8.261699979194790933e-01
1.160000000000000000e+02,-8.875705559846996939e-01
1.162500000000000000e+02,6.013438292791509765e-01
1.165000000000000000e+02,5.399754627217879799e-01
1.167500000000000000e+02,-7.362832745959763114e-01
1.170000000000000000e+02,-7.331505848423286453e-01
1.172500000000000000e+02,1.312510574956724962e+00
1.175000000000000000e+02,7.126818346513796865e-01
1.177500000000000000e+02,-1.127487840809407782e+00
1.180000000000000000e+02,-2.093596986038165075e-01
1.182500000000000000e+02,8.604744704056650484e-01
1.185000000000000000e+02,3.777546201315095664e-01
1.187500000000000000e+02,-7.986883414600995934e-01
1.190000000000000000e+02,-5.130694820576939819e-01
1.192500000000000000e+02,7.176393657156567851e-01
1.195000000000000000e+02,5.461453219857501651e-01
1.197500000000000000e+02,-7.685803327639257887e-01
1.200000000000000000e+02,-6.927230824801829945e-01
1.202500000000000000e+02,7.569777219201356822e-01
1.205000000000000000e+02,4.308928716157997552e-01
1.207500000000000000e+02,-8.482445922948269601e-01
1.210000000000000000e+02,-7.301075238625081010e-01
1.212500000000000000e+02,5.926188605397736398e-01
1.215000000000000000e+02,5.279616632495122142e-01
1.217500000000000000e+02,-6.498833397848559068e-01
1.220000000000000000e+02,-5.148212317829423679e-01
1.222500000000000000e+02,9.061724127058191636e-01
1.225000000000000000e+02,5.200986755594351196e-01
1.227500000000000000e+02,-9.515242459099053640e-01
1.230000000000000000e+02,-8.073465503111474373e-01
1.232500000000000000e+02,1.016900557889506951e+00
1.235000000000000000e+02,4.050539498160034002e-01
1.237500000000000000e+02,-7.956358196185379095e-01
1.240000000000000000e+02,-5.742708200795811901e-01
1.242500000000000000e+02,6.086647243461401624e-01
1.245000000000000000e+02,4.951000475697191483e-01
1.247500000000000000e+02,-6.092756892301535165e-01
1.250000000000000000e+02,-4.663891239689673673e-01
1.252500000000000000e+02,6.631902161802726292e-01
1.255000000000000000e+02,6.590204406607556020e-01
1.257500000000000000e+02,-7.029857754404792436e-01
1.260000000000000000e+02,-4.324355661525671746e-01
1.262500000000000000e+02,8.746361901796377847e-01
1.265000000000000000e+02,9.262724790650296303e-01
1.267500000000000000e+02,-9.873187137060194241e-01
1.270000000000000000e+02,-7.609447014357766381e-01
1.272500000000000000e+02,1.227867866028928390e+00
1.275000000000000000e+02,7.747938626936410333e-01
1.277500000000000000e+02,-1.065075522608174508e+00
1.280000000000000000e+02,-6.101572276064231026e-01
1.282500000000000000e+02,9.648417790163934527e-01
1.285000000000000000e+02,9.933213496999232506e-01
1.287500000000000000e+02,-8.856265749055095560e-01
1.290000000000000000e+02,-4.298822675678447003e-01
1.292500000000000000e+02,8.720668382881217040e-01
1.295000000000000000e+02,5.877847473824933111e-01
1.297500000000000000e+02,-5.118526286452148577e-01
1.300000000000000000e+02,-5.819480546599887782e-01
1.302500000000000000e+02,9.581667656473235040e-01
1.305000000000000000e+02,6.205926811749261640e-01
1.307500000000000000e+02,-9.032571640288994397e-01
1.310000000000000000e+02,-7.195248414556866257e-01
1.312500000000000000e+02,1.102425011684365685e+00
1.315000000000000000e+02,8.917677187521589888e-01
1.317500000000000000e+02,-8.522934833498763130e-01
1.320000000000000000e+02,-2.602809104279171781e-01
1.322500000000000000e+02,1.029596472175781985e+00
1.325000000000000000e+02,5.610036299513933011e-01
1.327500000000000000e+02,-5.814753726659657174e-01
1.330000000000000000e+02,-9.516230632749158591e-01
1.332500000000000000e+02,1.159260797011875344e+00
1.335000000000000000e+02,7.665372072777564272e-01
1.337500000000000000e+02,-9.902613029247304688e-01
1.340000000000000000e+02,-5.838254755179507205e-01
1.342500000000000000e+02,6.112641470534359023e-01
1.345000000000000000e+02,6.827801472005026184e-01
1.347500000000000000e+02,-5.730738940191995034e-01
1.350000000000000000e+02,-4.481043140754030762e-01
1.352500000000000000e+02,7.508722447413600509e-01
1.355000000000000000e+02,5.644997605450059464e-01
1.357500000000000000e+02,-5.757030464185076690e-01
1.360000000000000000e+02,-5.570856440550019384e-01
1.362500000000000000e+02,4.187552838305598213e-01
1.365000000000000000e+02,7.423707705438206128e-01
1.367500000000000000e+02,-6.842518998932903829e-01
1.370000000000000000e+02,-5.544860278223375794e-01
1.372500000000000000e+02,5.135945516764011121e-01
1.375000000000000000e+02,8.019593912392466439e-01
1.377500000000000000e+02,-7.394377579242880083e-01
1.380000000000000000e+02,-4.577285112007780099e-01
1.382500000000000000e+02,7.047984547451551229e-01
1.385000000000000000e+02,5.429683203080399867e-01
1.387500000000000000e+02,-7.370952696133078463e-01
1.390000000000000000e+02,-6.875224810833865385e-01
1.392500000000000000e+02,9.084640506330157184e-01
1.395000000000000000e+02,5.212278374110963508e-01
1.397500000000000000e+02,-9.069042385005914308e-01
1.400000000000000000e+02,-1.290190941552566972e+00
1.402500000000000000e+02,1.043717739159688351e+00
1.405000000000000000e+02,7.766973548785042203e-01
1.407500000000000000e+02,-9.737662609523769497e-01
1.410000000000000000e+02,-6.643847691573186998e-01
1.412500000000000000e+02,7.259676587933463487e-01
1.415000000000000000e+02,5.375368778232673117e-01
1.417500000000000000e+02,-1.143142253507876793e+00
1.420000000000000000e+02,-6.548041447209547172e-01
1.422500000000000000e+02,9.237478656007539479e-01
1.425000000000000000e+02,7.680664348515684470e-01
1.427500000000000000e+02,-8.262672991580428672e-01
1.430000000000000000e+02,-3.452699379517277789e-01
1.432500000000000000e+02,1.020685638988306110e+00
1.435000000000000000e+02,7.310943243624130616e-01
1.437500000000000000e+02,-7.361068858888840660e-01
1.440000000000000000e+02,-7.653059634235989117e-01
1.442500000000000000e+02,5.467152774955799099e-01
1.445000000000000000e+02,3.051291787649003107e-01
1.447500000000000000e+02,-8.524391624525857747e-01
1.450000000000000000e+02,-3.810418545458455486e-01
1.452500000000000000e+02,7.461206517488443435e-01
1.455000000000000000e+02,5.502600311366988572e-01
1.457500000000000000e+02,-5.854338512585528509e-01
1.460000000000000000e+02,-5.064338733259602376e-01
1.462500000000000000e+02,7.367135160826510099e-01
1.465000000000000000e+02,6.937151318700635061e-01
1.467500000000000000e+02,-1.001157172228184233e+00
1.470000000000000000e+02,-7.100521215840758238e-01
1.472500000000000000e+02,6.501749030232181203e-01
1.475000000000000000e+02,7.138410779184041210e-01
1.477500000000000000e+02,-7.393482673894530288e-01
1.480000000000000000e+02,-7.681576598651953525e-01
1.482500000000000000e+02,6.933288226680632826e-01
1.485000000000000000e+02,2.587555515314741705e-01
1.487500000000000000e+02,-9.211702795363516660e-01
1.490000000000000000e+02,-4.877038117565984376e-01
1.492500000000000000e+02,1.479985766737639707e+00
1.495000000000000000e+02,4.566150940519320689e-01
1.497500000000000000e+02,-9.859358883705197085e-01
1.500000000000000000e+02,-5.343359939315709406e-01
1.502500000000000000e+02,7.372276695446748906e-01
1.505000000000000000e+02,6.384672443444396883e-01
1.507500000000000000e+02,-7.142391379028739662e-01
1.510000000000000000e+02,-7.630573496260332211e-01
1.512500000000000000e+02,8.294429111744321403e-01
1.515000000000000000e+02,6.865264811623802421e-01
1.517500000000000000e+02,-9.880081539284625292e-01
1.520000000000000000e+02,-5.871492928405480649e-01
1.522500000000000000e+02,1.175397582166473054e+00
1.525000000000000000e+02,8.040672215939027589e-01
1.527500000000000000e+02,-9.016970163968767160e-01
1.530000000000000000e+02,-7.056718940108234195e-01
1.532500000000000000e+02,7.387668021170813448e-01
1.535000000000000000e+02,5.329897612462596301e-01
1.537500000000000000e+02,-4.759456499366210847e-01
1.540000000000000000e+02,-4.696978773338830737e-01
1.542500000000000000e+02,4.549599886019938255e-01
1.545000000000000000e+02,9.505974267566211777e-01
1.547500000000000000e+02,-7.608042549439658631e-01
1.550000000000000000e+02,-7.127718210679551136e-01
1.552500000000000000e+02,6.963443735081014108e-01
1.555000000000000000e+02,5.367809595782188081e-01
1.557500000000000000e+02,-6.910680518847803766e-01
1.560000000000000000e+02,-5.838799284889513164e-01
1.562500000000000000e+02,8.904004737835053973e-01
1.565000000000000000e+02,1.741326367137266129e-01
1.567500000000000000e+02,-8.269557332178704145e-01
1.570000000000000000e+02,-3.221501604639565031e-01
1.572500000000000000e+02,7.609835267811734250e-01
1.575000000000000000e+02,3.158270593319758568e-01
1.577500000000000000e+02,-9.226865934323522644e-01
1.580000000000000000e+02,-3.016171753663982047e-01
1.582500000000000000e+02,8.956368722980910801e-01
1.585000000000000000e+02,6.515604026209783628e-01
1.587500000000000000e+02,-8.211721459515317623e-01
1.590000000000000000e+02,-1.026612449256844917e+00
1.592500000000000000e+02,8.022901860947789787e-01
1.595000000000000000e+02,6.983004497161812152e-01
1.597500000000000000e+02,-6.191325026864922254e-01
1.600000000000000000e+02,-6.372394244881914860e-01
1.602500000000000000e+02,8.293688556108261833e-01
1.605000000000000000e+02,6.588206998519954283e-01
1.607500000000000000e+02,-7.913297079235918075e-01
1.610000000000000000e+02,-5.632297390472731369e-01
1.612500000000000000e+02,6.250992618267411371e-01
1.615000000000000000e+02,6.329384741223739175e-01
1.617500000000000000e+02,-7.104802176516611389e-01
1.620000000000000000e+02,-7.465166208674610671e-01
1.622500000000000000e+02,8.666150794773306298e-01
1.625000000000000000e+02,8.931264640438378866e-01
1.627500000000000000e+02,-7.658604609410095687e-01
1.630000000000000000e+02,-1.645094155844267214e-01
1.632500000000000000e+02,8.767906910588144642e-01
1.635000000000000000e+02,4.611344253039340590e-01
1.637500000000000000e+02,-9.413357020547979959e-01
1.640000000000000000e+02,-3.381115387471081424e-01
1.642500000000000000e+02,1.000611211529587541e+00
1.645000000000000000e+02,7.447221342365386576e-01
1.647500000000000000e+02,-7.844664873409906702e-01
1.650000000000000000e+02,-6.163659709644699891e-01
1.652500000000000000e+02,1.033445320717892413e+00
1.655000000000000000e+02,4.263081365850835969e-01
1.657500000000000000e+02,-6.810961247265870933e-01
1.660000000000000000e+02,-3.816109169499943277e-01
1.662500000000000000e+02,8.495447277418132215e-01
1.665000000000000000e+02,5.234379330046075030e-01
1.667500000000000000e+02,-7.481578172541510918e-01
1.670000000000000000e+02,-7.157154244138335120e-01
1.672500000000000000e+02,6.278294152533574479e-01
1.675000000000000000e+02,9.372971544381138997e-01
1.677500000000000000e+02,-7.636060259008705664e-01
1.680000000000000000e+02,-4.326248592788297098e-01
1.682500000000000000e+02,8.656803855155831284e-01
1.685000000000000000e+02,4.473089621152320228e-01
1.687500000000000000e+02,-1.035008576297476335e+00
1.690000000000000000e+02,-6.003027342826012802e-01
1.692500000000000000e+02,7.603733705420768763e-01
1.695000000000000000e+02,1.017213487111105819e+00
1.697500000000000000e+02,-7.587054232668027920e-01
1.700000000000000000e+02,-9.266662451224503272e-01
1.702500000000000000e+02,6.142079437552675492e-01
1.705000000000000000e+02,4.808173820369643359e-01
1.707500000000000000e+02,-8.354770511581203207e-01
1.710000000000000000e+02,-5.062350189530837596e-01
1.712500000000000000e+02,6.427721279544515998e-01
1.715000000000000000e+02,5.247090093972011093e-01
1.717500000000000000e+02,-8.470817095365382743e-01
1.720000000000000000e+02,-4.723305425211906106e-01
1.722500000000000000e+02,8.786534306572277853e-01
1.725000000000000000e+02,7.337816804812776761e-01
1.727500000000000000e+02,-1.061912512021014443e+00
1.730000000000000000e+02,-6.778368444737856713e-01
1.732500000000000000e+02,7.754215715044608936e-01
1.735000000000000000e+02,4.655321179430302880e-01
1.737500000000000000e+02,-1.146069953173719513e+00
1.740000000000000000e+02,-6.164316022378707460e-01
1.742500000000000000e+02,8.108038938938036955e-01
1.745000000000000000e+02,3.992136529640032405e-01
1.747500000000000000e+02,-9.270861539776692473e-01
1.750000000000000000e+02,-2.657068981163472898e-01
1.752500000000000000e+02,6.685905090800726702e-01
1.755000000000000000e+02,6.423059708654865751e-01
1.757500000000000000e+02,-7.084716189253501550e-01
1.760000000000000000e+02,-6.770718326360983808e-01
1.762500000000000000e+02,9.815806106150510857e-01
1.765000000000000000e+02,6.608828644041357947e-01
1.767500000000000000e+02,-5.698691450641146794e-01
1.770000000000000000e+02,-6.168496812509236538e-01
1.772500000000000000e+02,6.885593257121105371e-01
1.775000000000000000e+02,7.260424874101789605e-01
1.777500000000000000e+02,-8.432309102915033217e-01
1.780000000000000000e+02,-6.700017272529016354e-01
1.782500000000000000e+02,8.516848303223756300e-01
1.785000000000000000e+02,6.523041342105211360e-01
1.787500000000000000e+02,-6.864692291458259765e-01
1.790000000000000000e+02,-5.413493745193025397e-01
1.792500000000000000e+02,6.534863765590571694e-01
1.795000000000000000e+02,5.407207551456995054e-01
1.797500000000000000e+02,-1.053370786998930386e+00
1.800000000000000000e+02,-8.564142740240586749e-01
1.802500000000000000e+02,1.021098559995761823e+00
1.805000000000000000e+02,5.822260608154486983e-01
1.807500000000000000e+02,-9.757532915164803811e-01
1.810000000000000000e+02,-6.671687520155759055e-01
1.812500000000000000e+02,9.906999544376757783e-01
1.815000000000000000e+02,6.127684611895535260e-01
1.817500000000000000e+02,-5.006929601520759832e-01
1.820000000000000000e+02,-3.852890757024406421e-01
1.822500000000000000e+02,5.352542201655765552e-01
1.825000000000000000e+02,6.079914600655295098e-01
1.827500000000000000e+02,-4.074046127976864162e-01
1.830000000000000000e+02,-6.043110471630256386e-01
1.832500000000000000e+02,1.069259115114427949e+00
1.835000000000000000e+02,7.088632137559289781e-01
1.837500000000000000e+02,-9.420540895728463093e-01
1.840000000000000000e+02,-6.019440622710998667e-01
1.842500000000000000e+02,1.004322649629462383e+00
1.845000000000000000e+02,7.607417226143462496e-01
1.847500000000000000e+02,-6.686737787899333929e-01
1.850000000000000000e+02,-6.378354927612790437e-01
1.852500000000000000e+02,3.860095151579912565e-01
1.855000000000000000e+02,4.548454353325006028e-01
1.857500000000000000e+02,-8.174119462351304710e-01
1.860000000000000000e+02,-4.094738629949690178e-01
1.862500000000000000e+02,5.316275566441470701e-01
1.865000000000000000e+02,4.701799393299189722e-01
1.867500000000000000e+02,-8.648894880034654342e-01
1.870000000000000000e+02,-8.029437315399121644e-01
1.872500000000000000e+02,1.004256474676096911e+00
1.875000000000000000e+02,6.643165882732527949e-01
1.877500000000000000e+02,-8.773469127098204590e-01
1.880000000000000000e+02,-6.798281997800854626e-01
1.882500000000000000e+02,7.032381758137156158e-01
1.885000000000000000e+02,5.181825557347752298e-01
1.887500000000000000e+02,-5.046379960211279103e-01
1.890000000000000000e+02,-3.497610274842497535e-01
1.892500000000000000e+02,6.429526014703619285e-01
1.895000000000000000e+02,1.026480533177457355e+00
1.897500000000000000e+02,-7.996049054524417832e-01
1.900000000000000000e+02,-3.790190222713522572e-01
1.902500000000000000e+02,5.807600962812161649e-01
1.905000000000000000e+02,5.365182700748916123e-01
1.907500000000000000e+02,-1.117273167275885326e+00
1.910000000000000000e+02,-8.566100786191870320e-01
1.912500000000000000e+02,9.328740407757764030e-01
1.915000000000000000e+02,5.451308673793163750e-01
1.917500000000000000e+02,-7.740840903488038771e-01
1.920000000000000000e+02,-6.773192552865178184e-01
1.922500000000000000e+02,6.826280152173997973e-01
1.925000000000000000e+02,2.578927473999058084e-01
1.927500000000000000e+02,-6.110346457386751640e-01
1.930000000000000000e+02,-5.728771018244529500e-01
1.932500000000000000e+02,6.009957901015288151e-01
1.935000000000000000e+02,6.058423941586809081e-01
1.937500000000000000e+02,-7.455999590399718935e-01
1.940000000000000000e+02,-7.182022434292374413e-01
1.942500000000000000e+02,1.017018889717096419e+00
1.945000000000000000e+02,3.782669025733969570e-01
1.947500000000000000e+02,-8.228624218867086615e-01
1.950000000000000000e+02,-5.951849921719342129e-01
1.952500000000000000e+02,8.889210495506177923e-01
1.955000000000000000e+02,7.677294438173656310e-01
1.957500000000000000e+02,-9.894130668566628595e-01
1.960000000000000000e+02,-5.413172099508478663e-01
1.962500000000000000e+02,9.709922402389521423e-01
1.965000000000000000e+02,6.241855160335381125e-01
1.967500000000000000e+02,-8.629267302831786779e-01
1.970000000000000000e+02,-4.522574177535695350e-01
1.972500000000000000e+02,7.477888363963426377e-01
1.975000000000000000e+02,5.448082478161145881e-01
1.977500000000000000e+02,-3.820204060310902205e-01
1.980000000000000000e+02,-8.831347119750978525e-01
1.982500000000000000e+02,6.351874035234373883e-01
1.985000000000000000e+02,7.561231459908888120e-01
1.987500000000000000e+02,-8.294578587220766686e-01
1.990000000000000000e+02,-3.811350073836367591e-01
1.992500000000000000e+02,8.968977009409718759e-01
1.995000000000000000e+02,4.349029405194411724e-01
1.997500000000000000e+02,-8.236756833418269474e-01
2.000000000000000000e+02,-4.293511461121251038e-01
2.002500000000000000e+02,7.317787934269627259e-01
2.005000000000000000e+02,7.645413453615037547e-01
2.007500000000000000e+02,-5.918654002436746220e-01
2.010000000000000000e+02,-1.040618906960186552e+00
2.012500000000000000e+02,7.326973109154711894e-01
2.015000000000000000e+02,7.791198892788108177e-01
2.017500000000000000e+02,-7.609377408000217446e-01
2.020000000000000000e+02,-4.286015745618075856e-01
2.022500000000000000e+02,8.074338324733255634e-01
2.025000000000000000e+02,5.196430627854241591e-01
2.027500000000000000e+02,-6.864907323170987841e-01
2.030000000000000000e+02,-5.423074480178147194e-01
2.032500000000000000e+02,7.970751863186839037e-01
2.035000000000000000e+02,4.414121475921765625e-01
2.037500000000000000e+02,-9.422453609376462147e-01
2.040000000000000000e+02,-6.876014629192784833e-01
2.042500000000000000e+02,8.576954379025696351e-01
2.045000000000000000e+02,8.133649938110818489e-01
2.047500000000000000e+02,-1.019831946742852491e+00
2.050000000000000000e+02,-8.810841736710720573e-01
2.052500000000000000e+02,7.709647750900390228e-01
2.055000000000000000e+02,5.902934715533895149e-01
2.057500000000000000e+02,-1.121939266654699008e+00
2.060000000000000000e+02,-5.315079480361224462e-01
2.062500000000000000e+02,9.361310414427057580e-01
2.065000000000000000e+02,5.110142234271182193e-01
2.067500000000000000e+02,-6.977387569664761369e-01
2.070000000000000000e+02,-6.958876385802096332e-01
2.072500000000000000e+02,7.635285369009304768e-01
2.075000000000000000e+02,4.322275515501752263e-01
2.077500000000000000e+02,-5.827774530191636160e-01
2.080000000000000000e+02,-7.913406168839381971e-01
2.082500000000000000e+02,8.911373924544778724e-01
2.085000000000000000e+02,7.655128328526008552e-01
2.087500000000000000e+02,-8.432473654072258906e-01
2.090000000000000000e+02,-5.259354599615130299e-01
2.092500000000000000e+02,8.823749330289486492e-01
2.095000000000000000e+02,6.116393789731184860e-01
2.097500000000000000e+02,-7.711833740577892504e-01
2.100000000000000000e+02,-6.907830871709325082e-01
2.102500000000000000e+02,1.113376465795748116e+00
2.105000000000000000e+02,6.247461024814563446e-01
2.107500000000000000e+02,-9.926823410224916433e-01
2.110000000000000000e+02,-3.226671806683454324e-01
2.112500000000000000e+02,8.472995950119702746e-01
2.115000000000000000e+02,5.450360166033931808e-01
2.117500000000000000e+02,-7.927582191058201166e-01
2.120000000000000000e+02,-7.885271298744723767e-01
2.122500000000000000e+02,8.982188180482829631e-01
2.125000000000000000e+02,7.309652675772506658e-01
2.127500000000000000e+02,-9.426718444057542445e-01
2.130000000000000000e+02,-6.092247020178948036e-01
2.132500000000000000e+02,8.048092344844273160e-01
2.135000000000000000e+02,8.050270356454095610e-01
2.137500000000000000e+02,-1.155684543303234113e+00
2.140000000000000000e+02,-6.226528501871002597e-01
2.142500000000000000e+02,1.035713163356593469e+00
2.145000000000000000e+02,7.637187508387711654e-01
2.147500000000000000e+02,-9.344092568949777800e-01
2.150000000000000000e+02,-4.985162072256616450e-01
2.152500000000000000e+02,7.532394598791409823e-01
2.155000000000000000e+02,4.860454043490163856e-01
2.157500000000000000e+02,-5.751448258805381686e-01
2.160000000000000000e+02,-4.119429947677237802e-01
2.162500000000000000e+02,6.686367346376149712e-01
2.165000000000000000e+02,3.377109605862744224e-01
2.167500000000000000e+02,-5.642701937637137899e-01
2.170000000000000000e+02,-3.844292820876299421e-01
2.172500000000000000e+02,6.107661683587718437e-01
2.175000000000000000e+02,4.988464389770997376e-01
2.177500000000000000e+02,-5.939072285675129903e-01
2.180000000000000000e+02,-5.906025135387362734e-01
2.182500000000000000e+02,7.617724868959868667e-01
2.185000000000000000e+02,5.883613765554022157e-01
2.187500000000000000e+02,-7.725412304207748271e-01
2.190000000000000000e+02,-6.238362849022692780e-01
2.192500000000000000e+02,4.604186730221008772e-01
2.195000000000000000e+02,4.553988828671618472e-01
2.197500000000000000e+02,-8.637262294407196395e-01
2.200000000000000000e+02,-5.166940847529701841e-01
2.202500000000000000e+02,7.942457465459045185e-01
2.205000000000000000e+02,7.681480599431128597e-01
2.207500000000000000e+02,-9.560391786488739996e-01
2.210000000000000000e+02,-3.909157253501816531e-01
2.212500000000000000e+02,9.793508397527552756e-01
2.215000000000000000e+02,5.938352857095884341e-01
2.217500000000000000e+02,-7.191608209718288736e-01
2.220000000000000000e+02,-5.750494170424007567e-01
2.222500000000000000e+02,7.241515001957155029e-01
2.225000000000000000e+02,3.547539753512953808e-01
2.227500000000000000e+02,-7.346859162839333157e-01
2.230000000000000000e+02,-4.643700249172186267e-01
2.232500000000000000e+02,9.632785649191941690e-01
2.235000000000000000e+02,5.236752729079434676e-01
2.237500000000000000e+02,-7.661294934504465637e-01
2.240000000000000000e+02,-8.270614137146595768e-01
2.242500000000000000e+02,8.916673324491530828e-01
2.245000000000000000e+02,5.609805242305972994e-01
2.247500000000000000e+02,-6.497233957787084124e-01
2.250000000000000000e+02,-8.198223187676113577e-01
2.252500000000000000e+02,8.338094246250158381e-01
2.255000000000000000e+02,6.862276728895549960e-01
2.257500000000000000e+02,-9.873221503128734033e-01
2.260000000000000000e+02,-5.109894294528724012e-01
2.262500000000000000e+02,1.021359180890110130e+00
2.265000000000000000e+02,6.578216096064150031e-01
2.267500000000000000e+02,-6.058021780851424731e-01
2.270000000000000000e+02,-4.302924159165657514e-01
2.272500000000000000e+02,6.823946304077459502e-01
2.275000000000000000e+02,7.306301695077979108e-01
2.277500000000000000e+02,-6.479440639881729469e-01
2.280000000000000000e+02,-5.127906895058941261e-01
2.282500000000000000e+02,7.787685549227341131e-01
2.285000000000000000e+02,5.449297536111921136e-01
2.287500000000000000e+02,-6.666016776299700242e-01
2.290000000000000000e+02,-3.070966245799404137e-01
2.292500000000000000e+02,6.979793402125350488e-01
2.295000000000000000e+02,5.410483462675055311e-01
2.297500000000000000e+02,-4.893275009439012058e-01
2.300000000000000000e+02,-6.039348112860262185e-01
2.302500000000000000e+02,6.081998604884214510e-01
2.305000000000000000e+02,4.901371822390883648e-01
2.307500000000000000e+02,-8.353974089390090452e-01
2.310000000000000000e+02,-6.677713385221991649e-01
2.312500000000000000e+02,7.607794272075494302e-01
2.315000000000000000e+02,5.687007175197137387e-01
2.317500000000000000e+02,-8.252237617501574363e-01
2.320000000000000000e+02,-6.977925486712783787e-01
2.322500000000000000e+02,8.567693304884010930e-01
2.325000000000000000e+02,7.359769988648227068e-01
2.327500000000000000e+02,-8.164114171244487572e-01
2.330000000000000000e+02,-7.755494954324170243e-01
2.332500000000000000e+02,9.166896008671472362e-01
2.335000000000000000e+02,7.672234365849726068e-01
2.337500000000000000e+02,-8.423336393579557990e-01
2.340000000000000000e+02,-5.730922727637484115e-01
2.342500000000000000e+02,6.502610479242169061e-01
2.345000000000000000e+02,6.004193753005842016e-01
2.347500000000000000e+02,-9.514631978580121441e-01
2.350000000000000000e+02,-4.159002513711713700e-01
2.352500000000000000e+02,9.708218695512931262e-01
2.355000000000000000e+02,7.390347849370202393e-01
2.357500000000000000e+02,-6.022935256419912342e-01
2.360000000000000000e+02,-1.114566801734240054e+00
2.362500000000000000e+02,6.561648418856969034e-01
2.365000000000000000e+02,5.810363844388952703e-01
2.367500000000000000e+02,-9.072655913716318743e-01
2.370000000000000000e+02,-5.810227093556711297e-01
2.372500000000000000e+02,6.054704440051069669e-01
2.375000000000000000e+02,6.351393040752916219e-01
2.377500000000000000e+02,-8.465662325766117879e-01
2.380000000000000000e+02,-7.024540682061122254e-01
2.382500000000000000e+02,9.962952186555069645e-01
2.385000000000000000e+02,6.778658124647249927e-01
2.387500000000000000e+02,-6.592772413312434354e-01
2.390000000000000000e+02,-6.571887987936888553e-01
2.392500000000000000e+02,7.172003424817607886e-01
2.395000000000000000e+02,7.927862069138544854e-01
2.397500000000000000e+02,-7.707623818074434974e-01
2.400000000000000000e+02,-6.588798832562700047e-01
2.402500000000000000e+02,4.888441127334657854e-01
2.405000000000000000e+02,1.662596250565749056e-01
2.407500000000000000e+02,-7.139539889477597434e-01
2.410000000000000000e+02,-6.558567854402539421e-01
2.412500000000000000e+02,7.449988550222021999e-01
2.415000000000000000e+02,4.969906056601308686e-01
2.417500000000000000e+02,-7.284374212735363896e-01
2.420000000000000000e+02,-1.022324954313774015e+00
2.422500000000000000e+02,9.498915609495618417e-01
2.425000000000000000e+02,5.689868913367470693e-01
2.427500000000000000e+02,-7.572678795445985100e-01
2.430000000000000000e+02,-8.039963119639611522e-01
2.432500000000000000e+02,6.133063098001374502e-01
2.435000000000000000e+02,7.734348488579485537e-01
2.437500000000000000e+02,-6.397075871018844673e-01
2.440000000000000000e+02,-4.397470169290410569e-01
2.442500000000000000e+02,7.313443238689503190e-01
2.445000000000000000e+02,4.083532157781517569e-01
2.447500000000000000e+02,-8.133337151292551193e-01
2.450000000000000000e+02,-6.221701166607933597e-01
2.452500000000000000e+02,7.895037620270591860e-01
2.455000000000000000e+02,5.885828960910212126e-01
2.457500000000000000e+02,-7.702338340806137440e-01
2.460000000000000000e+02,-7.141390213998386471e-01
2.462500000000000000e+02,8.604027543564309877e-01
2.465000000000000000e+02,2.886809139138214464e-01
2.467500000000000000e+02,-7.151957894649210168e-01
2.470000000000000000e+02,-6.278821534064741305e-01
2.472500000000000000e+02,5.335561479733690327e-01
2.475000000000000000e+02,4.452665030850670447e-01
2.477500000000000000e+02,-5.872440116404770150e-01
2.480000000000000000e+02,-6.094130801976203049e-01
2.482500000000000000e+02,8.967471101710804415e-01
2.485000000000000000e+02,7.330432776103292802e-01
2.487500000000000000e+02,-1.025125386199288835e+00
2.490000000000000000e+02,-7.116891238974757394e-01
2.492500000000000000e+02,9.384112584647842370e-01
2.495000000000000000e+02,6.966696858079822752e-01
2.497500000000000000e+02,-9.231533185913124440e-01
2.500000000000000000e+02,-6.491598367033565298e-01
2.502500000000000000e+02,8.284796492809086699e-01
2.505000000000000000e+02,6.526797037450086103e-01
2.507500000000000000e+02,-5.376590348069909542e-01
2.510000000000000000e+02,-5.358394329493940678e-01
2.512500000000000000e+02,9.586779824638068659e-01
2.515000000000000000e+02,5.699913297333251139e-01
2.517500000000000000e+02,-1.118087113254519815e+00
2.520000000000000000e+02,-1.089031967279503021e+00
2.522500000000000000e+02,7.241645376188625693e-01
2.525000000000000000e+02,4.134598821133126378e-01
2.527500000000000000e+02,-6.568173961847326714e-01
2.530000000000000000e+02,-7.114432614395393983e-01
2.532500000000000000e+02,7.089308701985073125e-01
2.535000000000000000e+02,7.317519946345050208e-01
2.537500000000000000e+02,-9.764290876294664523e-01
2.540000000000000000e+02,-6.089503761668615400e-01
2.542500000000000000e+02,7.110288238606600197e-01
2.545000000000000000e+02,8.197981019396157754e-01
2.547500000000000000e+02,-8.270746265857439328e-01
2.550000000000000000e+02,-6.421976601097607595e-01
2.552500000000000000e+02,7.085396267800656567e-01
2.555000000000000000e+02,6.970426715465132261e-01
2.557500000000000000e+02,-9.605468158861067973e-01
2.560000000000000000e+02,-8.278683079902147135e-01
2.562500000000000000e+02,8.881236752285548430e-01
2.565000000000000000e+02,6.678760157589261892e-01
2.567500000000000000e+02,-7.477955360699594101e-01
2.570000000000000000e+02,-3.375644038807877889e-01
2.572500000000000000e+02,7.697124685545395639e-01
2.575000000000000000e+02,5.172240693332752492e-01
2.577500000000000000e+02,-6.039612711654733790e-01
2.580000000000000000e+02,-4.903166563886239837e-01
2.582500000000000000e+02,6.434897194124646891e-01
2.585000000000000000e+02,5.515637824770017739e-01
2.587500000000000000e+02,-1.007118718950196889e+00
2.590000000000000000e+02,-6.226006707105020688e-01
2.592500000000000000e+02,1.023857936422593928e+00
2.595000000000000000e+02,6.203717711693162995e-01
2.597500000000000000e+02,-6.227356670037159647e-01
2.600000000000000000e+02,-5.872270525083278514e-01
2.602500000000000000e+02,5.964236737688412004e-01
2.605000000000000000e+02,7.202639683663292214e-01
2.607500000000000000e+02,-8.999705849525473367e-01
2.610000000000000000e+02,-6.489120761039356422e-01
2.612500000000000000e+02,9.687721905704700376e-01
2.615000000000000000e+02,6.126956441271822484e-01
2.617500000000000000e+02,-8.022402649411443099e-01
2.620000000000000000e+02,-6.748945021617290818e-01
2.622500000000000000e+02,1.218771065426827338e+00
2.625000000000000000e+02,4.708023046996998584e-01
2.627500000000000000e+02,-1.065873879887989428e+00
2.630000000000000000e+02,-6.066510479526014965e-01
2.632500000000000000e+02,7.630336955769646545e-01
2.635000000000000000e+02,5.195068086636881466e-01
2.637500000000000000e+02,-7.478430854716038301e-01
2.640000000000000000e+02,-7.574153666704932508e-01
2.642500000000000000e+02,8.110772764073220786e-01
2.645000000000000000e+02,5.398254023091769715e-01
2.647500000000000000e+02,-8.090538224417437307e-01
2.650000000000000000e+02,-6.345280170214012694e-01
2.652500000000000000e+02,7.965713577858808403e-01
2.655000000000000000e+02,7.452531777824253911e-01
2.657500000000000000e+02,-6.105221801874496368e-01
2.660000000000000000e+02,-4.714340526946235732e-01
2.662500000000000000e+02,6.380047057194241367e-01
2.665000000000000000e+02,6.198024853698419490e-01
2.667500000000000000e+02,-5.073211190000471715e-01
2.670000000000000000e+02,-5.747721238140007793e-01
2.672500000000000000e+02,9.356001149681243412e-01
2.675000000000000000e+02,4.972213387136291685e-01
2.677500000000000000e+02,-9.134684997477019452e-01
2.680000000000000000e+02,-4.672118151418966914e-01
2.682500000000000000e+02,9.998622683188769233e-01
2.685000000000000000e+02,6.489337424860384118e-01
2.687500000000000000e+02,-1.087330446997133659e+00
2.690000000000000000e+02,-5.085350517319361385e-01
2.692500000000000000e+02,7.829459333509491969e-01
2.695000000000000000e+02,4.452246308130601293e-01
2.697500000000000000e+02,-9.278491835980023916e-01
2.700000000000000000e+02,-5.391050471089102736e-01
2.702500000000000000e+02,1.032842304564348890e+00
2.705000000000000000e+02,8.583211488829707303e-01
2.707500000000000000e+02,-8.755628122942803460e-01
2.710000000000000000e+02,-9.219470188914183906e-01
2.712500000000000000e+02,8.228906977352420382e-01
2.715000000000000000e+02,7.787541132148545486e-01
2.717500000000000000e+02,-6.466962334727082151e-01
2.720000000000000000e+02,-5.754400266186193713e-01
2.722500000000000000e+02,6.924856752211592248e-01
2.725000000000000000e+02,9.416370978470708364e-01
2.727500000000000000e+02,-6.688547382360452431e-01
2.730000000000000000e+02,-7.275555584079289595e-01
2.732500000000000000e+02,8.557731244057422693e-01
2.735000000000000000e+02,6.239662759268038705e-01
2.737500000000000000e+02,-8.037402401263133989e-01
2.740000000000000000e+02,-4.394650186832281813e-01
2.742500000000000000e+02,9.494096295363436688e-01
2.745000000000000000e+02,6.933158561458082625e-01
2.747500000000000000e+02,-6.625946143106248298e-01
2.750000000000000000e+02,-4.798042949850430672e-01
2.752500000000000000e+02,6.603605867993594947e-01
2.755000000000000000e+02,8.615801458518558276e-01
2.757500000000000000e+02,-8.825752189714408669e-01
2.760000000000000000e+02,-4.808430111218794933e-01
2.762500000000000000e+02,9.307987309801267761e-01
2.765000000000000000e+02,8.060903779715837825e-01
2.767500000000000000e+02,-1.045828332870168742e+00
2.770000000000000000e+02,-3.671157034407075970e-01
2.772500000000000000e+02,7.657816474396033080e-01
2.775000000000000000e+02,5.317928209146504104e-01
2.777500000000000000e+02,-9.119315265500314016e-01
2.780000000000000000e+02,-8.004699397408221451e-01
2.782500000000000000e+02,8.919668674122078755e-01
2.785000000000000000e+02,9.792439498627646399e-01
2.787500000000000000e+02,-8.206264279273942641e-01
2.790000000000000000e+02,-8.016673118775921036e-01
2.792500000000000000e+02,9.432143006964823773e-01
2.795000000000000000e+02,1.232458631058907850e+00
2.797500000000000000e+02,-9.161743144662710669e-01
2.800000000000000000e+02,-8.688501311364863477e-01
2.802500000000000000e+02,1.102844491414686656e+00
2.805000000000000000e+02,6.841442631004072128e-01
2.807500000000000000e+02,-7.091569439224378879e-01
2.810000000000000000e+02,-4.163446581357475584e-01
2.812500000000000000e+02,8.068850854578952791e-01
2.815000000000000000e+02,4.917602946738779957e-01
2.817500000000000000e+02,-8.195355160537333150e-01
2.820000000000000000e+02,-4.995021898561641804e-01
2.822500000000000000e+02,7.066738932874383483e-01
2.825000000000000000e+02,5.289966025343230127e-01
2.827500000000000000e+02,-6.977997778706035437e-01
2.830000000000000000e+02,-3.315442923091179162e-01
2.832500000000000000e+02,6.850338529177341096e-01
2.835000000000000000e+02,3.243085512951327520e-01
2.837500000000000000e+02,-5.555341672985496526e-01
2.840000000000000000e+02,-4.489485998152456525e-01
2.842500000000000000e+02,6.410021273825400323e-01
2.845000000000000000e+02,4.440780465727182102e-01
2.847500000000000000e+02,-4.612883979855529337e-01
2.850000000000000000e+02,-4.911621422005060245e-01
2.852500000000000000e+02,6.709316691053108794e-01
2.855000000000000000e+02,4.048652409409309594e-01
2.857500000000000000e+02,-6.073306834631749807e-01
2.860000000000000000e+02,-6.409790031077687855e-01
2.862500000000000000e+02,9.767450582690189176e-01
2.865000000000000000e+02,4.824285913755145261e-01
2.867500000000000000e+02,-7.957618204248708693e-01
2.870000000000000000e+02,-5.821220341491532002e-01
2.872500000000000000e+02,7.566402484225812630e-01
2.875000000000000000e+02,4.480866643402679483e-01
2.877500000000000000e+02,-9.782286282374128561e-01
2.880000000000000000e+02,-5.388696335102575175e-01
2.882500000000000000e+02,7.604761035098988042e-01
2.885000000000000000e+02,7.986511818846635524e-01
2.887500000000000000e+02,-9.747174946134569140e-01
2.890000000000000000e+02,-8.406577935529868650e-01
2.892500000000000000e+02,6.405475217892538931e-01
2.895000000000000000e+02,7.518786618879872430e-01
2.897500000000000000e+02,-9.142166460883022205e-01
2.900000000000000000e+02,-7.558863487841317452e-01
2.902500000000000000e+02,7.564082013530093462e-01
2.905000000000000000e+02,7.559756868922670181e-01
2.907500000000000000e+02,-7.947562044856210095e-01
2.910000000000000000e+02,-8.180049922919659933e-01
2.912500000000000000e+02,9.583558768679250051e-01
2.915000000000000000e+02,4.567842614171930271e-01
2.917500000000000000e+02,-1.006981363239876526e+00
2.920000000000000000e+02,-8.728346624631854178e-01
2.922500000000000000e+02,7.209046358510864394e-01
2.925000000000000000e+02,8.521368691615889279e-01
2.927500000000000000e+02,-6.854327161634562460e-01
2.930000000000000000e+02,-4.832081601803184245e-01
2.932500000000000000e+02,8.359580868271090370e-01
2.935000000000000000e+02,5.152464999398428391e-01
2.937500000000000000e+02,-1.111483912788159945e+00
2.940000000000000000e+02,-5.302108499240169026e-01
2.942500000000000000e+02,9.454671897727549013e-01
2.945000000000000000e+02,4.353466842940992287e-01
2.947500000000000000e+02,-1.082806918121661077e+00
2.950000000000000000e+02,-5.833053051322182325e-01
2.952500000000000000e+02,8.711586310524346288e-01
2.955000000000000000e+02,4.649217761842464047e-01
2.957500000000000000e+02,-7.642324700139567772e-01
2.960000000000000000e+02,-8.645305991395849654e-01
2.962500000000000000e+02,6.705174778458760088e-01
2.965000000000000000e+02,5.802922504006271520e-01
2.967500000000000000e+02,-4.578800668422288167e-01
2.970000000000000000e+02,-6.104803209852223134e-01
2.972500000000000000e+02,6.573359632955249054e-01
2.975000000000000000e+02,5.847652265903191537e-01
2.977500000000000000e+02,-8.273948607650112308e-01
2.980000000000000000e+02,-6.989127151240016600e-01
2.982500000000000000e+02,7.548858342938461474e-01
2.985000000000000000e+02,7.425971964236965928e-01
2.987500000000000000e+02,-6.074261476165208062e-01
2.990000000000000000e+02,-4.967471610730048170e-01
2.992500000000000000e+02,8.942669632968934801e-01
2.995000000000000000e+02,5.278940433320866710e-01
2.997500000000000000e+02,-5.493108624027701614e-01
3.000000000000000000e+02,-6.081648192199955449e-01
3.002500000000000000e+02,9.535944575506527521e-01
3.005000000000000000e+02,5.574556760461015781e-01
3.007500000000000000e+02,-7.253403837240883778e-01
3.010000000000000000e+02,-6.425743723882815228e-01
3.012500000000000000e+02,8.026863426049840600e-01
3.015000000000000000e+02,6.249278820059649409e-01
3.017500000000000000e+02,-8.880496223634948283e-01
3.020000000000000000e+02,-5.828928078786889122e-01
3.022500000000000000e+02,1.001873316287946292e+00
3.025000000000000000e+02,4.646607279538126911e-01
3.027500000000000000e+02,-9.889779321438409987e-01
3.030000000000000000e+02,-4.747913298254934356e-01
3.032500000000000000e+02,8.624216825276828091e-01
3.035000000000000000e+02,8.858904840923399471e-01
3.037500000000000000e+02,-8.207464511570247145e-01
3.040000000000000000e+02,-6.185254924920813302e-01
3.042500000000000000e+02,5.331170560562757954e-01
3.045000000000000000e+02,5.694600402576516229e-01
3.047500000000000000e+02,-7.701451949988961099e-01
3.050000000000000000e+02,-5.207408495868890430e-01
3.052500000000000000e+02,8.494231605320026190e-01
3.055000000000000000e+02,5.476678303073894138e-01
3.057500000000000000e+02,-8.167820953960365227e-01
3.060000000000000000e+02,-4.695079714719460062e-01
3.062500000000000000e+02,7.349168342784315744e-01
3.065000000000000000e+02,5.938471229832756881e-01
3.067500000000000000e+02,-6.158038266592233967e-01
3.070000000000000000e+02,-6.536104002630667154e-01
3.072500000000000000e+02,1.015417167483524175e+00
3.075000000000000000e+02,2.953904857733092304e-01
3.077500000000000000e+02,-7.495529912133791495e-01
3.080000000000000000e+02,-3.262800711232232143e-01
3.082500000000000000e+02,1.050488255930125625e+00
3.085000000000000000e+02,5.025021894342489581e-01
3.087500000000000000e+02,-1.083561828268810423e+00
3.090000000000000000e+02,-5.236046815158931222e-01
3.092500000000000000e+02,6.142043627138467077e-01
3.095000000000000000e+02,6.393782203164397604e-01
3.097500000000000000e+02,-7.263812673519745022e-01
3.100000000000000000e+02,-5.852785613929095687e-01
3.102500000000000000e+02,8.084574049389878780e-01
3.105000000000000000e+02,8.269006002199007499e-01
3.107500000000000000e+02,-5.428672455052007129e-01
3.110000000000000000e+02,-3.749255008439260628e-01
3.112500000000000000e+02,6.347651811515597764e-01
3.115000000000000000e+02,5.135472623202124165e-01
3.117500000000000000e+02,-8.629708284371776505e-01
3.120000000000000000e+02,-7.156754526903389424e-01
3.122500000000000000e+02,9.726508496672884307e-01
3.125000000000000000e+02,6.596773600565298823e-01
3.127500000000000000e+02,-6.125159710887629894e-01
3.130000000000000000e+02,-5.884886466637366809e-01
3.132500000000000000e+02,5.358957745593967426e-01
3.135000000000000000e+02,4.955050133427008618e-01
3.137500000000000000e+02,-7.359771137592430179e-01
3.140000000000000000e+02,-4.645903901426010063e-01
3.142500000000000000e+02,8.046190781462272401e-01
3.145000000000000000e+02,6.126325299079017350e-01
3.147500000000000000e+02,-6.185169385022459831e-01
3.150000000000000000e+02,-5.109017248512046638e-01
3.152500000000000000e+02,6.061404683312748842e-01
3.155000000000000000e+02,5.615367575146341661e-01
3.157500000000000000e+02,-6.936129583809071963e-01
3.160000000000000000e+02,-6.949718727704553567e-01
3.162500000000000000e+02,7.095103312385758754e-01
3.165000000000000000e+02,5.739626139935684046e-01
3.167500000000000000e+02,-6.089847421414262829e-01
3.170000000000000000e+02,-7.712766040419033464e-01
3.172500000000000000e+02,1.139109286226762441e+00
3.175000000000000000e+02,6.809021687476473073e-01
3.177500000000000000e+02,-6.597047092934607004e-01
3.180000000000000000e+02,-1.059253991913244874e+00
3.182500000000000000e+02,8.041025051316782468e-01
3.185000000000000000e+02,7.907490593225765529e-01
3.187500000000000000e+02,-9.053333955104662101e-01
3.190000000000000000e+02,-8.726519551052285273e-01
3.192500000000000000e+02,7.042463055105956382e-01
3.195000000000000000e+02,5.586377340386508017e-01
3.197500000000000000e+02,-8.399106434194608672e-01
3.200000000000000000e+02,-7.840259885671728712e-01
3.202500000000000000e+02,5.877517931794955519e-01
3.205000000000000000e+02,3.222931277361079094e-01
3.207500000000000000e+02,-5.424941637678843964e-01
3.210000000000000000e+02,-5.750134412352638780e-01
3.212500000000000000e+02,7.405169611760552550e-01
3.215000000000000000e+02,5.036440399052132255e-01
3.217500000000000000e+02,-7.205997545381417346e-01
3.220000000000000000e+02,-5.042968408761752119e-01
3.222500000000000000e+02,9.754616553533480561e-01
3.225000000000000000e+02,5.625276692243175169e-01
3.227500000000000000e+02,-8.677819340914477708e-01
3.230000000000000000e+02,-6.251259341914314760e-01
3.232500000000000000e+02,7.230702951027371261e-01
3.235000000000000000e+02,7.262699381937136600e-01
3.237500000000000000e+02,-4.257781481807944024e-01
3.240000000000000000e+02,-5.624429253519026561e-01
3.242500000000000000e+02,4.296755052295384569e-01
3.245000000000000000e+02,7.032989367081251553e-01
3.247500000000000000e+02,-7.944516983513295605e-01
3.250000000000000000e+02,-6.192251843884443163e-01
3.252500000000000000e+02,7.027039760257737244e-01
3.255000000000000000e+02,6.079525287418997559e-01
3.257500000000000000e+02,-7.531334287230809776e-01
3.260000000000000000e+02,-7.637215102085329610e-01
3.262500000000000000e+02,1.395492820708672754e+00
3.265000000000000000e+02,4.677724519714618889e-01
3.267500000000000000e+02,-1.124672405110547002e+00
3.270000000000000000e+02,-7.594387219740907913e-01
3.272500000000000000e+02,8.653188457367257946e-01
3.275000000000000000e+02,6.952669242033666652e-01
3.277500000000000000e+02,-1.088796921056611522e+00
3.280000000000000000e+02,-4.587752031761487825e-01
3.282500000000000000e+02,7.557994629903487249e-01
3.285000000000000000e+02,3.812491570302456445e-01
3.287500000000000000e+02,-6.921776501582106444e-01
3.290000000000000000e+02,-8.905204455323326718e-01
3.292500000000000000e+02,9.998980893844121587e-01
3.295000000000000000e+02,5.112433819678753322e-01
3.297500000000000000e+02,-1.070952026474494279e+00
3.300000000000000000e+02,-6.243841101151743622e-01
3.302500000000000000e+02,9.672860068735362749e-01
3.305000000000000000e+02,4.248750573864623625e-01
3.307500000000000000e+02,-1.110176522944217092e+00
3.310000000000000000e+02,-6.766105250544247607e-01
3.312500000000000000e+02,5.542439534619868491e-01
3.315000000000000000e+02,4.501922812549345454e-01
3.317500000000000000e+02,-8.358419473913084596e-01
3.320000000000000000e+02,-7.102544264315550082e-01
3.322500000000000000e+02,6.245554761911294994e-01
3.325000000000000000e+02,4.022782553488325474e-01
3.327500000000000000e+02,-7.377766847450879517e-01
3.330000000000000000e+02,-7.551674075090301086e-01
3.332500000000000000e+02,8.747682783079903102e-01
3.335000000000000000e+02,7.228158768039388837e-01
3.337500000000000000e+02,-6.787822839388876206e-01
3.340000000000000000e+02,-8.299658972394516887e-01
3.342500000000000000e+02,8.554005271982323411e-01
3.345000000000000000e+02,6.423986393809477669e-01
3.347500000000000000e+02,-8.656790894527978120e-01
3.350000000000000000e+02,-8.202793951948802453e-01
3.352500000000000000e+02,8.617500862550430130e-01
3.355000000000000000e+02,5.582197130840480526e-01
3.357500000000000000e+02,-9.652215170622423512e-01
3.360000000000000000e+02,-5.941315934437444435e-01
3.362500000000000000e+02,9.060882415571824833e-01
3.365000000000000000e+02,6.303278681889492585e-01
3.367500000000000000e+02,-7.712004651967909741e-01
3.370000000000000000e+02,-4.372506309957352455e-01
3.372500000000000000e+02,4.262461894450430000e-01
3.375000000000000000e+02,5.905589952618858218e-01
3.377500000000000000e+02,-6.437883245740736449e-01
3.380000000000000000e+02,-6.336963224342277989e-01
3.382500000000000000e+02,9.044985891677287393e-01
3.385000000000000000e+02,5.562949214530009678e-01
3.387500000000000000e+02,-8.067304233892460541e-01
3.390000000000000000e+02,-7.702525330350170618e-01
3.392500000000000000e+02,9.142386452023875121e-01
3.395000000000000000e+02,6.244004223029865353e-01
3.397500000000000000e+02,-6.382596392438356636e-01
3.400000000000000000e+02,-6.241948418647781383e-01
3.402500000000000000e+02,8.473228602470601611e-01
3.405000000000000000e+02,6.673246534495320681e-01
3.407500000000000000e+02,-9.224050169557894696e-01
3.410000000000000000e+02,-4.603009622136678969e-01
3.412500000000000000e+02,7.428205426384006937e-01
3.415000000000000000e+02,6.604649053625667454e-01
3.417500000000000000e+02,-7.232216389887089480e-01
3.420000000000000000e+02,-8.730419840522958275e-01
3.422500000000000000e+02,9.223279303058368184e-01
3.425000000000000000e+02,6.059369323308892996e-01
3.427500000000000000e+02,-6.505532547586329040e-01
3.430000000000000000e+02,-4.154758916103681310e-01
3.432500000000000000e+02,9.989695424575546490e-01
3.435000000000000000e+02,8.158065639748595110e-01
3.437500000000000000e+02,-9.876599201114067972e-01
3.440000000000000000e+02,-7.736887933521887639e-01
3.442500000000000000e+02,1.092326441375693680e+00
3.445000000000000000e+02,5.193228691778686290e-01
3.447500000000000000e+02,-4.887185472506024309e-01
3.450000000000000000e+02,-6.759694608172532870e-01
3.452500000000000000e+02,7.091602252523361294e-01
3.455000000000000000e+02,4.382984345559291506e-01
3.457500000000000000e+02,-6.850441760437157024e-01
3.460000000000000000e+02,-6.177096337460011855e-01
3.462500000000000000e+02,8.692070583707257603e-01
3.465000000000000000e+02,5.977266759358647041e-01
3.467500000000000000e+02,-6.843173930470285438e-01
3.470000000000000000e+02,-5.894061775696767258e-01
3.472500000000000000e+02,8.247709750290654895e-01
3.475000000000000000e+02,6.649871501751704050e-01
3.477500000000000000e+02,-6.332108766489462637e-01
3.480000000000000000e+02,-4.322448117885575036e-01
3.482500000000000000e+02,6.942344332438941112e-01
3.485000000000000000e+02,3.159971825267532952e-01
3.487500000000000000e+02,-5.666493723498207125e-01
3.490000000000000000e+02,-6.110213329751501554e-01
3.492500000000000000e+02,6.963945653655573276e-01
3.495000000000000000e+02,6.945961339162096682e-01
3.497500000000000000e+02,-7.637250748109103426e-01
3.500000000000000000e+02,-6.860460560584844547e-01
3.502500000000000000e+02,7.565239842368952639e-01
3.505000000000000000e+02,5.687317060603437335e-01
3.507500000000000000e+02,-9.865234674292076011e-01
3.510000000000000000e+02,-8.552986497789697440e-01
3.512500000000000000e+02,8.734729101308662536e-01
3.515000000000000000e+02,4.344357865259402818e-01
3.517500000000000000e+02,-9.423387646105041426e-01
3.520000000000000000e+02,-7.899082157729421239e-01
3.522500000000000000e+02,7.821715160718281101e-01
3.525000000000000000e+02,6.644851696005381614e-01
3.527500000000000000e+02,-9.596356277904652954e-01
3.530000000000000000e+02,-4.826999027019976962e-01
3.532500000000000000e+02,1.092320861981326274e+00
3.535000000000000000e+02,7.534488039589055663e-01
3.537500000000000000e+02,-8.688855526367846860e-01
3.540000000000000000e+02,-7.265078318772580923e-01
3.542500000000000000e+02,6.142369587906276740e-01
3.545000000000000000e+02,6.102225799384549676e-01
3.547500000000000000e+02,-6.725151519741763284e-01
3.550000000000000000e+02,-2.955474358737392726e-01
3.552500000000000000e+02,5.922278567277895478e-01
3.555000000000000000e+02,3.179205868381907441e-01
3.557500000000000000e+02,-7.090058477203036169e-01
3.560000000000000000e+02,-4.421690564485417085e-01
3.562500000000000000e+02,8.177483495605375463e-01
3.565000000000000000e+02,5.231378626050080527e-01
3.567500000000000000e+02,-7.238397968588895504e-01
3.570000000000000000e+02,-6.152375424224199030e-01
3.572500000000000000e+02,8.422611322407488332e-01
3.575000000000000000e+02,6.403711636057151102e-01
3.577500000000000000e+02,-5.067027626936952966e-01
3.580000000000000000e+02,-4.794999776234542543e-01
3.582500000000000000e+02,1.148214403566330422e+00
3.585000000000000000e+02,4.139144532213361316e-01
3.587500000000000000e+02,-8.743121750500707501e-01
3.590000000000000000e+02,-7.856489907829997676e-01
3.592500000000000000e+02,9.071356352975048498e-01
3.595000000000000000e+02,4.619043651049681842e-01
3.597500000000000000e+02,-9.740460480807459076e-01
3.600000000000000000e+02,-8.401243169444227998e-01
3.602500000000000000e+02,6.270254318311112574e-01
3.605000000000000000e+02,9.632074345381511637e-01
3.607500000000000000e+02,-9.211451514164448184e-01
3.610000000000000000e+02,-5.552027927555134301e-01
3.612500000000000000e+02,7.289396822221316796e-01
3.615000000000000000e+02,6.926701250708485746e-01
3.617500000000000000e+02,-7.891851397157955139e-01
3.620000000000000000e+02,-6.203755361322423889e-01
3.622500000000000000e+02,6.252442015095098782e-01
3.625000000000000000e+02,6.201154786526623663e-01
3.627500000000000000e+02,-7.642705030944704214e-01
3.630000000000000000e+02,-5.915166957344980547e-01
3.632500000000000000e+02,8.212381299028104209e-01
3.635000000000000000e+02,7.030544078611097314e-01
3.637500000000000000e+02,-8.697124195838434879e-01
3.640000000000000000e+02,-4.762689625850313191e-01
3.642500000000000000e+02,6.661455588590808885e-01
3.645000000000000000e+02,7.486537948607453474e-01
3.647500000000000000e+02,-1.032583704995849283e+00
3.650000000000000000e+02,-2.866861496324638048e-01
3.652500000000000000e+02,6.024854985984512412e-01
3.655000000000000000e+02,5.072877377640623298e-01
3.657500000000000000e+02,-7.601629065287177633e-01
3.660000000000000000e+02,-6.808509867365949431e-01
3.662500000000000000e+02,7.838942633884159461e-01
3.665000000000000000e+02,2.567536410195584429e-01
3.667500000000000000e+02,-7.196603051401816442e-01
3.670000000000000000e+02,-4.987256708830152818e-01
3.672500000000000000e+02,4.289368432351470806e-01
3.675000000000000000e+02,5.049053341128663108e-01
3.677500000000000000e+02,-5.657828759976483157e-01
3.680000000000000000e+02,-5.693178952527064851e-01
3.682500000000000000e+02,7.981805898789159359e-01
3.685000000000000000e+02,4.488066991323810817e-01
3.687500000000000000e+02,-7.655895968019931219e-01
3.690000000000000000e+02,-6.340322919155817472e-01
3.692500000000000000e+02,8.347788455287401543e-01
3.695000000000000000e+02,7.268232604850828338e-01
3.697500000000000000e+02,-6.844533200860510869e-01
3.700000000000000000e+02,-7.124164175119034326e-01
3.702500000000000000e+02,6.417782180000863868e-01
3.705000000000000000e+02,7.499501463066061691e-01
3.707500000000000000e+02,-7.126032576101641869e-01
3.710000000000000000e+02,-7.112180532168779212e-01
3.712500000000000000e+02,9.922347008362363274e-01
3.715000000000000000e+02,7.036637933733419503e-01
3.717500000000000000e+02,-6.012062557285243747e-01
3.720000000000000000e+02,-7.116959920381445981e-01
3.722500000000000000e+02,6.447175616077451821e-01
3.725000000000000000e+02,4.418986306779828510e-01
3.727500000000000000e+02,-5.237408718637441840e-01
3.730000000000000000e+02,-4.281539870149327354e-01
3.732500000000000000e+02,7.769406127423180708e-01
3.735000000000000000e+02,2.362804752364485450e-01
3.737500000000000000e+02,-1.032104049441378901e+00
3.740000000000000000e+02,-6.569246789374693085e-01
3.742500000000000000e+02,1.020857964624611647e+00
3.745000000000000000e+02,4.791462759260632920e-01
3.747500000000000000e+02,-6.406046523437014528e-01
3.750000000000000000e+02,-4.839873333051302740e-01
3.752500000000000000e+02,9.763278827881295419e-01
3.755000000000000000e+02,7.917438759461311593e-01
3.757500000000000000e+02,-8.454363007475277358e-01
3.760000000000000000e+02,-5.411527306153102179e-01
3.762500000000000000e+02,1.005343873328524928e+00
3.765000000000000000e+02,6.128644322868525007e-01
3.767500000000000000e+02,-9.172747421696962888e-01
3.770000000000000000e+02,-6.429797701894364170e-01
3.772500000000000000e+02,6.465489033180706890e-01
3.775000000000000000e+02,6.957651992046995915e-01
3.777500000000000000e+02,-1.077836014933894582e+00
3.780000000000000000e+02,-6.441021325857791968e-01
3.782500000000000000e+02,8.995590357872461640e-01
3.785000000000000000e+02,5.858343504441620997e-01
3.787500000000000000e+02,-8.854018276215446237e-01
3.790000000000000000e+02,-8.963598717203593580e-01
3.792500000000000000e+02,1.013746341044122090e+00
3.795000000000000000e+02,8.001802411366997214e-01
3.797500000000000000e+02,-6.602983462515482627e-01
3.800000000000000000e+02,-9.026379881516605197e-01
3.802500000000000000e+02,1.157560254241002617e+00
3.805000000000000000e+02,3.849083379043744535e-01
3.807500000000000000e+02,-9.536736534808395449e-01
3.810000000000000000e+02,-5.370764643818137785e-01
3.812500000000000000e+02,5.460330319042897562e-01
3.815000000000000000e+02,9.167532826220635700e-01
3.817500000000000000e+02,-6.382205264034209735e-01
3.820000000000000000e+02,-6.431640777394721509e-01
3.822500000000000000e+02,7.736871123806808859e-01
3.825000000000000000e+02,4.861887465190425361e-01
3.827500000000000000e+02,-6.473791500372702012e-01
3.830000000000000000e+02,-6.155165196871400513e-01
3.832500000000000000e+02,5.690967650514908716e-01
3.835000000000000000e+02,4.611607533193675112e-01
3.837500000000000000e+02,-6.889536713689884406e-01
3.840000000000000000e+02,-4.869470197044883375e-01
3.842500000000000000e+02,5.170103673057693250e-01
3.845000000000000000e+02,4.402737158768911252e-01
3.847500000000000000e+02,-7.408964881294876070e-01
3.850000000000000000e+02,-4.937032247604639656e-01
3.852500000000000000e+02,4.856693607321083128e-01
3.855000000000000000e+02,3.671891391335140864e-01
3.857500000000000000e+02,-6.559200183666139550e-01
3.860000000000000000e+02,-7.032035454631316851e-01
3.862500000000000000e+02,9.807010604648873642e-01
3.865000000000000000e+02,3.377737645446274306e-01
3.867500000000000000e+02,-6.764683659854336950e-01
3.870000000000000000e+02,-6.384721383029928754e-01
3.872500000000000000e+02,9.551466170086015950e-01
3.875000000000000000e+02,6.412747908234119887e-01
3.877500000000000000e+02,-8.466255817473100631e-01
3.880000000000000000e+02,-5.868628896879019008e-01
3.882500000000000000e+02,7.523994030193202898e-01
3.885000000000000000e+02,8.612194795647537537e-01
3.887500000000000000e+02,-7.910503003164234270e-01
3.890000000000000000e+02,-6.854993430188356385e-01
3.892500000000000000e+02,5.695446638950740770e-01
3.895000000000000000e+02,6.000665261701344511e-01
3.897500000000000000e+02,-7.057005033169927444e-01
3.900000000000000000e+02,-8.474317450767167026e-01
3.902500000000000000e+02,8.219016239870846618e-01
3.905000000000000000e+02,9.725302538934391672e-01
3.907500000000000000e+02,-1.054942426185663473e+00
3.910000000000000000e+02,-7.328132930351342056e-01
3.912500000000000000e+02,6.733223630980069707e-01
3.915000000000000000e+02,5.690699575820793443e-01
3.917500000000000000e+02,-8.987633213693325684e-01
3.920000000000000000e+02,-6.778279718876073501e-01
3.922500000000000000e+02,8.176899634804962735e-01
3.925000000000000000e+02,8.429266269968127556e-01
3.927500000000000000e+02,-8.157897361192560926e-01
3.930000000000000000e+02,-6.412584215819341349e-01
3.932500000000000000e+02,8.368390179508448101e-01
3.935000000000000000e+02,7.823780923207249716e-01
3.937500000000000000e+02,-8.242634424696063666e-01
3.940000000000000000e+02,-6.262424212674233548e-01
3.942500000000000000e+02,9.862044042865383275e-01
3.945000000000000000e+02,6.887292632963777361e-01
3.947500000000000000e+02,-1.135156657872451458e+00
3.950000000000000000e+02,-7.421670127671453621e-01
3.952500000000000000e+02,9.079182516468663477e-01
3.955000000000000000e+02,4.115904358973862531e-01
3.957500000000000000e+02,-7.819934863596949004e-01
3.960000000000000000e+02,-5.795975683121088462e-01
3.962500000000000000e+02,7.377319115929508175e-01
3.965000000000000000e+02,4.782756802576062505e-01
3.967500000000000000e+02,-5.656963594062945910e-01
3.970000000000000000e+02,-5.608320720727796305e-01
3.972500000000000000e+02,8.597359439629127520e-01
3.975000000000000000e+02,4.686882955870824707e-01
3.977500000000000000e+02,-6.097824566311901284e-01
3.980000000000000000e+02,-3.064746081473043171e-01
3.982500000000000000e+02,9.890807538692190093e-01
3.985000000000000000e+02,7.244409098135811131e-01
3.987500000000000000e+02,-8.963294906316919830e-01
3.990000000000000000e+02,-5.108856159170866995e-01
3.992500000000000000e+02,9.849169358184233225e-01
3.995000000000000000e+02,4.752208215839077154e-01
3.997500000000000000e+02,-7.423232963245830485e-01
4.000000000000000000e+02,-6.952819061463387795e-01
4.002500000000000000e+02,9.970815690910265205e-01
4.005000000000000000e+02,7.112603918965648697e-01
4.007500000000000000e+02,-7.193421825171449902e-01
4.010000000000000000e+02,-5.320263984644437727e-01
4.012500000000000000e+02,6.352991664287572782e-01
4.015000000000000000e+02,6.685351167013617868e-01
4.017500000000000000e+02,-8.479089696322864578e-01
4.020000000000000000e+02,-6.954332739777449035e-01
4.022500000000000000e+02,6.950071458787608902e-01
4.025000000000000000e+02,5.138410843327346766e-01
4.027500000000000000e+02,-8.707103072354369644e-01
4.030000000000000000e+02,-7.710881482328358905e-01
4.032500000000000000e+02,7.696119422152484235e-01
4.035000000000000000e+02,4.056157245584477988e-01
4.037500000000000000e+02,-1.004873920059496939e+00
4.040000000000000000e+02,-5.035936346339359160e-01
4.042500000000000000e+02,7.900485934874394989e-01
4.045000000000000000e+02,3.509819188845557658e-01
4.047500000000000000e+02,-6.301567218867234477e-01
4.050000000000000000e+02,-5.887680349305887129e-01
4.052500000000000000e+02,7.572126032257732176e-01
4.055000000000000000e+02,7.954487452495472288e-01
4.057500000000000000e+02,-1.003909651131152714e+00
4.060000000000000000e+02,-7.670937238970525485e-01
4.062500000000000000e+02,7.565649786906284424e-01
4.065000000000000000e+02,7.488791530521889950e-01
4.067500000000000000e+02,-1.097563221462133809e+00
4.070000000000000000e+02,-6.890063375996625661e-01
4.072500000000000000e+02,1.005336106225801274e+00
4.075000000000000000e+02,6.002501618889746204e-01
4.077500000000000000e+02,-1.080857878940240990e+00
4.080000000000000000e+02,-4.452261088176946990e-01
4.082500000000000000e+02,8.947778546140269240e-01
4.085000000000000000e+02,3.655855603954812905e-01
4.087500000000000000e+02,-6.025505925858237743e-01
4.090000000000000000e+02,-6.226329310464229216e-01
4.092500000000000000e+02,6.080682583852971002e-01
4.095000000000000000e+02,5.020465795629461825e-01
4.097500000000000000e+02,-5.563839489603399358e-01
4.100000000000000000e+02,-3.580670329351516856e-01
4.102500000000000000e+02,6.559135018713365683e-01
4.105000000000000000e+02,5.325897767040044251e-01
4.107500000000000000e+02,-6.386807752844656516e-01
4.110000000000000000e+02,-3.766238293753780275e-01
4.112500000000000000e+02,6.133761403635618059e-01
4.115000000000000000e+02,5.277719622758698659e-01
4.117500000000000000e+02,-8.458406562359845893e-01
4.120000000000000000e+02,-4.163673156997130254e-01
4.122500000000000000e+02,4.787808534864965160e-01
4.125000000000000000e+02,4.243854283498994517e-01
4.127500000000000000e+02,-5.777251830404829258e-01
4.130000000000000000e+02,-4.429566660635577691e-01
4.132500000000000000e+02,4.456390063945072089e-01
4.135000000000000000e+02,6.721469190701119256e-01
4.137500000000000000e+02,-6.915499794587792737e-01
4.140000000000000000e+02,-4.955086591616240654e-01
4.142500000000000000e+02,8.233419417891322256e-01
4.145000000000000000e+02,4.541757031368092723e-01
4.147500000000000000e+02,-5.205277295977044361e-01
4.150000000000000000e+02,-6.992589982030485984e-01
4.152500000000000000e+02,6.831758587695532237e-01
4.155000000000000000e+02,4.774535132978606766e-01
4.157500000000000000e+02,-5.453188984185427524e-01
4.160000000000000000e+02,-7.383077608573405115e-01
4.162500000000000000e+02,7.335086250670108665e-01
4.165000000000000000e+02,4.156656801009858127e-01
4.167500000000000000e+02,-8.853283518031697108e-01
4.170000000000000000e+02,-5.229232993043814171e-01
4.172500000000000000e+02,5.329153724156153737e-01
4.175000000000000000e+02,8.342546264549266510e-01
4.177500000000000000e+02,-7.983385692323959892e-01
4.180000000000000000e+02,-3.884899721099288605e-01
4.182500000000000000e+02,1.033878069601543936e+00
4.185000000000000000e+02,6.537717267641638408e-01
4.187500000000000000e+02,-8.760373531337487529e-01
4.190000000000000000e+02,-5.168385004566767860e-01
4.192500000000000000e+02,6.084119356371086029e-01
4.195000000000000000e+02,9.224477429770318038e-01
4.197500000000000000e+02,-1.028575215956700317e+00
4.200000000000000000e+02,-5.223473851048214822e-01
4.202500000000000000e+02,9.846592320094517126e-01
4.205000000000000000e+02,7.617731446266217121e-01
4.207500000000000000e+02,-7.899310536847385933e-01
4.210000000000000000e+02,-4.948944121285391295e-01
4.212500000000000000e+02,6.691246496475189431e-01
4.215000000000000000e+02,7.006000217075917247e-01
4.217500000000000000e+02,-1.018967444487105967e+00
4.220000000000000000e+02,-8.631338894311225696e-01
4.222500000000000000e+02,9.354184778603931161e-01
4.225000000000000000e+02,5.442659089155263974e-01
4.227500000000000000e+02,-7.576239170965606284e-01
4.230000000000000000e+02,-7.020489799947674525e-01
4.232500000000000000e+02,5.961299029087551160e-01
4.235000000000000000e+02,7.037061783895516287e-01
4.237500000000000000e+02,-8.525799014020973843e-01
4.240000000000000000e+02,-4.845809292114927613e-01
4.242500000000000000e+02,7.134753495453564076e-01
4.245000000000000000e+02,6.177255172494918734e-01
4.247500000000000000e+02,-9.690022428267619503e-01
4.250000000000000000e+02,-7.223340698654986403e-01
4.252500000000000000e+02,7.836798095144764664e-01
4.255000000000000000e+02,8.643540153732039988e-01
4.257500000000000000e+02,-9.094975615325094909e-01
4.260000000000000000e+02,-4.047469308851668335e-01
4.262500000000000000e+02,7.979330109966783491e-01
4.265000000000000000e+02,6.715667454802459746e-01
4.267500000000000000e+02,-8.449993580754183720e-01
4.270000000000000000e+02,-6.185688401378732770e-01
4.272500000000000000e+02,8.057494860789539137e-01
4.275000000000000000e+02,4.848621587683656364e-01
4.277500000000000000e+02,-8.778211971610968556e-01
4.280000000000000000e+02,-6.973972176353867569e-01
4.282500000000000000e+02,5.876066759056558508e-01
4.285000000000000000e+02,5.632610389799835859e-01
4.287500000000000000e+02,-1.004879421464768940e+00
4.290000000000000000e+02,-6.819646938019756632e-01
4.292500000000000000e+02,7.451535268454871908e-01
4.295000000000000000e+02,8.515362259446153104e-01
4.297500000000000000e+02,-3.684299634139129309e-01
4.300000000000000000e+02,-3.961628130445726259e-01
4.302500000000000000e+02,7.292633647012776166e-01
4.305000000000000000e+02,6.062478758735331263e-01
4.307500000000000000e+02,-6.551638324265455227e-01
4.310000000000000000e+02,-5.651609453380157522e-01
4.312500000000000000e+02,7.515750919783118489e-01
4.315000000000000000e+02,4.301120906831271684e-01
4.317500000000000000e+02,-6.295115581295658291e-01
4.320000000000000000e+02,-7.142858709209288781e-01
4.322500000000000000e+02,9.494209849481142216e-01
4.325000000000000000e+02,6.501650806571617203e-01
4.327500000000000000e+02,-7.148091597070391767e-01
4.330000000000000000e+02,-6.372518763719834389e-01
4.332500000000000000e+02,1.112146010189563938e+00
4.335000000000000000e+02,5.938874920645599298e-01
4.337500000000000000e+02,-6.733882350511078974e-01
4.340000000000000000e+02,-5.510161144835478142e-01
4.342500000000000000e+02,5.569417915002606856e-01
4.345000000000000000e+02,5.288012993694644059e-01
4.347500000000000000e+02,-7.039680328612399896e-01
4.350000000000000000e+02,-3.381245994937371879e-01
4.352500000000000000e+02,8.469635299939457518e-01
4.355000000000000000e+02,5.611902792452091449e-01
4.357500000000000000e+02,-9.402518737985253727e-01
4.360000000000000000e+02,-4.178988240846129298e-01
4.362500000000000000e+02,6.555221982333541142e-01
4.365000000000000000e+02,6.491343425538881329e-01
4.367500000000000000e+02,-8.814877683945316900e-01
4.370000000000000000e+02,-7.372123436427285847e-01
4.372500000000000000e+02,1.053473367088288537e+00
4.375000000000000000e+02,7.333651886370795570e-01
4.377500000000000000e+02,-1.037779898275678514e+00
4.380000000000000000e+02,-8.728686158810061713e-01
4.382500000000000000e+02,8.553945571749002053e-01
4.385000000000000000e+02,7.744881121794900958e-01
4.387500000000000000e+02,-8.998891766358136923e-01
4.390000000000000000e+02,-4.458691662694802549e-01
4.392500000000000000e+02,9.228503809659442947e-01
4.395000000000000000e+02,9.107920554355954934e-01
4.397500000000000000e+02,-6.540612592518404433e-01
4.400000000000000000e+02,-5.547986791564056830e-01
4.402500000000000000e+02,8.606197240826007899e-01
4.405000000000000000e+02,6.697077427457124310e-01
4.407500000000000000e+02,-6.102909960333511297e-01
4.410000000000000000e+02,-4.531475720780114846e-01
4.412500000000000000e+02,1.357382324311530608e+00
4.415000000000000000e+02,5.252204603621037915e-01
4.417500000000000000e+02,-8.360408739520573951e-01
4.420000000000000000e+02,-5.722572293947288946e-01
4.422500000000000000e+02,5.464305916377194539e-01
4.425000000000000000e+02,5.215941915689487063e-01
4.427500000000000000e+02,-9.062368622787259076e-01
4.430000000000000000e+02,-5.764432322785382201e-01
4.432500000000000000e+02,9.625212130693127088e-01
4.435000000000000000e+02,5.566705312825316332e-01
4.437500000000000000e+02,-5.711149641522028642e-01
4.440000000000000000e+02,-6.525341109123945493e-01
4.442500000000000000e+02,6.665488308659146544e-01
4.445000000000000000e+02,1.411382565323441030e-01
4.447500000000000000e+02,-7.668779462662185242e-01
4.450000000000000000e+02,-5.217405792090810124e-01
4.452500000000000000e+02,7.977209352191395597e-01
4.455000000000000000e+02,6.526982019906921728e-01
4.457500000000000000e+02,-1.042607646783570763e+00
4.460000000000000000e+02,-6.590778289106432597e-01
4.462500000000000000e+02,1.037759450336066536e+00
4.465000000000000000e+02,4.562637877289425492e-01
4.467500000000000000e+02,-1.234833502918736725e+00
4.470000000000000000e+02,-5.890202829623177871e-01
4.472500000000000000e+02,1.108124435783761408e+00
4.475000000000000000e+02,7.251511413579335708e-01
4.477500000000000000e+02,-1.002804451489376358e+00
4.480000000000000000e+02,-4.489820885811178219e-01
4.482500000000000000e+02,9.547174083105424147e-01
4.485000000000000000e+02,7.032997030191762144e-01
4.487500000000000000e+02,-9.188173676158882808e-01
4.490000000000000000e+02,-8.972214664265061312e-01
4.492500000000000000e+02,1.067518742122890885e+00
4.495000000000000000e+02,6.938241558293123390e-01
4.497500000000000000e+02,-7.014367132253347403e-01
4.500000000000000000e+02,-5.137595875651459476e-01
4.502500000000000000e+02,7.648927349984070423e-01
4.505000000000000000e+02,3.682972428091182970e-01
4.507500000000000000e+02,-1.029025616428883128e+00
4.510000000000000000e+02,-5.649761420516278276e-01
4.512500000000000000e+02,5.553055512909633729e-01
4.515000000000000000e+02,3.748085835127356602e-01
4.517500000000000000e+02,-4.198923625387235847e-01
4.520000000000000000e+02,-6.050102291513486108e-01
4.522500000000000000e+02,7.521179376881785839e-01
4.525000000000000000e+02,6.614907656486972432e-01
4.527500000000000000e+02,-6.664503090569586785e-01
4.530000000000000000e+02,-4.369949925793898404e-01
4.532500000000000000e+02,5.963624668318149302e-01
4.535000000000000000e+02,7.464259445867449383e-01
4.537500000000000000e+02,-7.614916243236307114e-01
4.540000000000000000e+02,-5.281115423773983242e-01
4.542500000000000000e+02,6.830644230006669426e-01
4.545000000000000000e+02,5.150601992775303284e-01
4.547500000000000000e+02,-6.168251430138557145e-01
4.550000000000000000e+02,-7.364755836350621587e-01
4.552500000000000000e+02,6.852212965965404079e-01
4.555000000000000000e+02,3.374961205260053609e-01
4.557500000000000000e+02,-8.783608819260305678e-01
4.560000000000000000e+02,-7.421016388884390524e-01
4.562500000000000000e+02,7.600093477379079587e-01
4.565000000000000000e+02,3.718898932782969124e-01
4.567500000000000000e+02,-8.274827077648932994e-01
4.570000000000000000e+02,-1.048770556861193359e+00
4.572500000000000000e+02,8.290412770874624471e-01
4.575000000000000000e+02,6.035854114874225074e-01
4.577500000000000000e+02,-6.482873286616229747e-01
4.580000000000000000e+02,-5.429083369846764429e-01
4.582500000000000000e+02,7.784931802248898913e-01
4.585000000000000000e+02,5.070690450325732179e-01
4.587500000000000000e+02,-7.551194988535099295e-01
4.590000000000000000e+02,-6.398429260162885601e-01
4.592500000000000000e+02,3.856835237524565141e-01
4.595000000000000000e+02,7.844403084666194959e-01
4.597500000000000000e+02,-8.768080306734267193e-01
4.600000000000000000e+02,-8.226192447689451015e-01
4.602500000000000000e+02,8.643038638932999396e-01
4.605000000000000000e+02,5.017327248797653905e-01
4.607500000000000000e+02,-8.029976683888759847e-01
4.610000000000000000e+02,-8.082729377180614128e-01
4.612500000000000000e+02,9.384021838206942911e-01
4.615000000000000000e+02,8.011823328021769886e-01
4.617500000000000000e+02,-8.548732028954837414e-01
4.620000000000000000e+02,-3.788488777180282763e-01
4.622500000000000000e+02,8.394803827840811028e-01
4.625000000000000000e+02,6.337621468029009941e-01
4.627500000000000000e+02,-6.452349759399801377e-01
4.630000000000000000e+02,-4.065380798917562211e-01
4.632500000000000000e+02,6.707859820544552765e-01
4.635000000000000000e+02,5.308155647439720681e-01
4.637500000000000000e+02,-3.392437414588764244e-01
4.640000000000000000e+02,-4.476429769894107458e-01
4.642500000000000000e+02,7.952753436163554346e-01
4.645000000000000000e+02,5.137848607783251920e-01
4.647500000000000000e+02,-8.856849881118654677e-01
4.650000000000000000e+02,-7.988205985340557369e-01
4.652500000000000000e+02,7.683529828377058113e-01
4.655000000000000000e+02,6.044382369173454395e-01
4.657500000000000000e+02,-8.184172350201579516e-01
4.660000000000000000e+02,-5.185467924174229637e-01
4.662500000000000000e+02,6.261944686510921843e-01
4.665000000000000000e+02,4.028601841435877073e-01
4.667500000000000000e+02,-7.896317028478333500e-01
4.670000000000000000e+02,-5.436907791214319330e-01
4.672500000000000000e+02,7.072808773525598447e-01
4.675000000000000000e+02,5.328092451488204429e-01
4.677500000000000000e+02,-6.263995464454625850e-01
4.680000000000000000e+02,-4.015393083534376517e-01
4.682500000000000000e+02,6.430939911053668023e-01
4.685000000000000000e+02,2.485896655293707014e-01
4.687500000000000000e+02,-7.080298005102200198e-01
4.690000000000000000e+02,-5.661553308573630261e-01
4.692500000000000000e+02,7.017081026234268659e-01
4.695000000000000000e+02,5.601192589812343803e-01
4.697500000000000000e+02,-7.208986149613486605e-01
4.700000000000000000e+02,-6.172223601299476892e-01
4.702500000000000000e+02,8.689005551966472174e-01
4.705000000000000000e+02,5.218600986204308123e-01
4.707500000000000000e+02,-7.763172931952092570e-01
4.710000000000000000e+02,-4.716422034822940201e-01
4.712500000000000000e+02,8.812309062540513160e-01
4.715000000000000000e+02,4.824338780315969299e-01
4.717500000000000000e+02,-7.145612282779957303e-01
4.720000000000000000e+02,-5.691880973515420772e-01
4.722500000000000000e+02,7.391326845063511675e-01
4.725000000000000000e+02,6.513109930752039034e-01
4.727500000000000000e+02,-8.283522266053153782e-01
4.730000000000000000e+02,-6.856565272673911249e-01
4.732500000000000000e+02,7.273664685089952231e-01
4.735000000000000000e+02,6.280124195543012044e-01
4.737500000000000000e+02,-6.064397275760146089e-01
4.740000000000000000e+02,-5.357537038356301462e-01
4.742500000000000000e+02,6.585941525147317455e-01
4.745000000000000000e+02,5.093091228744660581e-01
4.747500000000000000e+02,-7.078995042943366789e-01
4.750000000000000000e+02,-3.463998457868994185e-01
4.752500000000000000e+02,9.684405724863128784e-01
4.755000000000000000e+02,7.001220738658656684e-01
4.757500000000000000e+02,-1.207178974174438535e+00
4.760000000000000000e+02,-4.893205862294682240e-01
4.762500000000000000e+02,9.931140758923473477e-01
4.765000000000000000e+02,6.505723171134155658e-01
4.767500000000000000e+02,-7.035413980237698039e-01
4.770000000000000000e+02,-6.512799340671518999e-01
4.772500000000000000e+02,8.768796161335515871e-01
4.775000000000000000e+02,8.514425147915909431e-01
4.777500000000000000e+02,-8.130752107374861204e-01
4.780000000000000000e+02,-6.664288253197986345e-01
4.782500000000000000e+02,1.069609058033739180e+00
4.785000000000000000e+02,6.986151469052943597e-01
4.787500000000000000e+02,-9.808954540258035815e-01
4.790000000000000000e+02,-5.123405574124124673e-01
4.792500000000000000e+02,7.692866464936441995e-01
4.795000000000000000e+02,7.150977044070917499e-01
4.797500000000000000e+02,-9.848377096768702321e-01
4.800000000000000000e+02,-5.935150267305860927e-01
4.802500000000000000e+02,9.710802524299286809e-01
4.805000000000000000e+02,8.118138767627678387e-01
4.807500000000000000e+02,-1.075989653347796837e+00
4.810000000000000000e+02,-1.123770564822481610e+00
4.812500000000000000e+02,7.613074850450870512e-01
4.815000000000000000e+02,7.383622290309524994e-01
4.817500000000000000e+02,-7.756484623870240069e-01
4.820000000000000000e+02,-5.136574953944690325e-01
4.822500000000000000e+02,5.233190576545785344e-01
4.825000000000000000e+02,6.438016926966089182e-01
4.827500000000000000e+02,-7.366141975778233153e-01
4.830000000000000000e+02,-5.974053604233739989e-01
4.832500000000000000e+02,7.932343406984037060e-01
4.835000000000000000e+02,7.565167664417079552e-01
4.837500000000000000e+02,-7.974678427799475333e-01
4.840000000000000000e+02,-3.744555148397598621e-01
4.842500000000000000e+02,1.120139607207053078e+00
4.845000000000000000e+02,3.962312106209441298e-01
4.847500000000000000e+02,-6.459633313536857768e-01
4.850000000000000000e+02,-8.000901266920871224e-01
4.852500000000000000e+02,1.043405564786645812e+00
4.855000000000000000e+02,8.119576715789272869e-01
4.857500000000000000e+02,-8.106660927360944680e-01
4.860000000000000000e+02,-7.350563617642984493e-01
4.862500000000000000e+02,7.309417686182771989e-01
4.865000000000000000e+02,5.374568931751522172e-01
4.867500000000000000e+02,-8.743079483251423589e-01
4.870000000000000000e+02,-6.291049659581250397e-01
4.872500000000000000e+02,7.391718805246830781e-01
4.875000000000000000e+02,6.996920679843753321e-01
4.877500000000000000e+02,-8.901454007146123448e-01
4.880000000000000000e+02,-4.763634842421657911e-01
4.882500000000000000e+02,1.004229921071152054e+00
4.885000000000000000e+02,7.566301465166994644e-01
4.887500000000000000e+02,-7.413599876855092585e-01
4.890000000000000000e+02,-5.648192064989396854e-01
4.892500000000000000e+02,5.763022863846984922e-01
4.895000000000000000e+02,7.233861906687295562e-01
4.897500000000000000e+02,-1.278515052565851740e+00
4.900000000000000000e+02,-9.527729991530879960e-01
4.902500000000000000e+02,1.135301195998263069e+00
4.905000000000000000e+02,8.630738803872740617e-01
4.907500000000000000e+02,-1.224213339742326712e+00
4.910000000000000000e+02,-7.051186484971599944e-01
4.912500000000000000e+02,9.733094166067169928e-01
4.915000000000000000e+02,7.224949441425863039e-01
4.917500000000000000e+02,-8.582788800683565089e-01
4.920000000000000000e+02,-6.943980440643061636e-01
4.922500000000000000e+02,8.853319100855018275e-01
4.925000000000000000e+02,6.095314057011107511e-01
4.927500000000000000e+02,-8.802970453554224139e-01
4.930000000000000000e+02,-5.201061904163424288e-01
4.932500000000000000e+02,8.716795700225494770e-01
4.935000000000000000e+02,6.494021915341935403e-01
4.937500000000000000e+02,-6.650404353576777616e-01
4.940000000000000000e+02,-7.487776227683429209e-01
4.942500000000000000e+02,1.003730365680687520e+00
4.945000000000000000e+02,7.743285437246787417e-01
4.947500000000000000e+02,-6.310686669302656426e-01
4.950000000000000000e+02,-4.820958294752869522e-01
4.952500000000000000e+02,5.370013231740049520e-01
4.955000000000000000e+02,6.392341443239443199e-01
4.957500000000000000e+02,-1.008123035965294845e+00
4.960000000000000000e+02,-7.227354561483068096e-01
4.962500000000000000e+02,8.751695468607203487e-01
4.965000000000000000e+02,6.855672477041321322e-01
4.967500000000000000e+02,-8.050108671278715100e-01
4.970000000000000000e+02,-9.426246290108128978e-01
4.972500000000000000e+02,8.387395447644653279e-01
4.975000000000000000e+02,3.594921415309875745e-01
4.977500000000000000e+02,-7.947742235563876045e-01
4.980000000000000000e+02,-5.797581553602598747e-01
4.982500000000000000e+02,8.158079012949400743e-01
4.985000000000000000e+02,6.522925284901105458e-01
4.987500000000000000e+02,-8.040686777265264595e-01
4.990000000000000000e+02,-7.561360446312606065e-01
4.992500000000000000e+02,8.101425239868238481e-01
4.995000000000000000e+02,7.174014436054323429e-01
4.997500000000000000e+02,-8.453229858565904919e-01
5.000000000000000000e+02,-4.200844300791476971e-01
5.002500000000000000e+02,5.191259089963770057e-01
5.005000000000000000e+02,5.819574917870850017e-01
5.007500000000000000e+02,-6.430055225752752124e-01
5.010000000000000000e+02,-4.271450679418389296e-01
5.012500000000000000e+02,8.028621637298105629e-01
5.015000000000000000e+02,4.901255198619658970e-01
5.017500000000000000e+02,-6.123123664942159428e-01
5.020000000000000000e+02,-5.432447565525857502e-01
5.022500000000000000e+02,8.174947455507518557e-01
5.025000000000000000e+02,6.364089104771296634e-01
5.027500000000000000e+02,-7.485095996050219469e-01
5.030000000000000000e+02,-6.620533891853472852e-01
5.032500000000000000e+02,7.712762003518014442e-01
5.035000000000000000e+02,4.342275167351051790e-01
5.037500000000000000e+02,-7.637710417682822550e-01
5.040000000000000000e+02,-8.359619707867874672e-01
5.042500000000000000e+02,6.267100347714339437e-01
5.045000000000000000e+02,8.186996367986805190e-01
5.047500000000000000e+02,-9.078220204890027345e-01
5.050000000000000000e+02,-6.479767911477265496e-01
5.052500000000000000e+02,1.054480427848287105e+00
5.055000000000000000e+02,7.482586799701719249e-01
5.057500000000000000e+02,-8.513015430853028143e-01
5.060000000000000000e+02,-5.048715302707174057e-01
5.062500000000000000e+02,7.794942581108610380e-01
5.065000000000000000e+02,8.101745917511045114e-01
5.067500000000000000e+02,-8.802160384049130259e-01
5.070000000000000000e+02,-4.353539850254372623e-01
5.072500000000000000e+02,9.139522876222857528e-01
5.075000000000000000e+02,4.689906117914207639e-01
5.077500000000000000e+02,-5.918451631638229626e-01
5.080000000000000000e+02,-9.132026970715476644e-01
5.082500000000000000e+02,8.566290894110170084e-01
5.085000000000000000e+02,4.949467961022844809e-01
5.087500000000000000e+02,-5.414479266814195002e-01
5.090000000000000000e+02,-6.190082890675768779e-01
5.092500000000000000e+02,9.338298280048872302e-01
5.095000000000000000e+02,7.464459302765609205e-01
5.097500000000000000e+02,-7.279652390738629020e-01
5.100000000000000000e+02,-3.086756708652443892e-01
5.102500000000000000e+02,7.076418946156635137e-01
5.105000000000000000e+02,4.576088995795510872e-01
5.107500000000000000e+02,-9.160414890741912508e-01
5.110000000000000000e+02,-6.667349182294566301e-01
5.112500000000000000e+02,1.014617713446993585e+00
5.115000000000000000e+02,4.611662062648335114e-01
5.117500000000000000e+02,-7.935982373469686602e-01
5.120000000000000000e+02,-6.715726720271975037e-01
5.122500000000000000e+02,6.668335116517338790e-01
5.125000000000000000e+02,2.005689214214273486e-01
5.127500000000000000e+02,-7.052228477474922208e-01
5.130000000000000000e+02,-4.073995857636735218e-01
5.132500000000000000e+02,5.255839153696036936e-01
5.135000000000000000e+02,5.410730744551734972e-01
5.137500000000000000e+02,-7.823938153600028533e-01
5.140000000000000000e+02,-7.499500950235441499e-01
5.142500000000000000e+02,1.016764556938354103e+00
5.145000000000000000e+02,5.710883287691951304e-01
5.147500000000000000e+02,-1.328356236418163805e+00
5.150000000000000000e+02,-5.458397835439074974e-01
5.152500000000000000e+02,1.167628120496671862e+00
5.155000000000000000e+02,4.975397946924474124e-01
5.157500000000000000e+02,-1.011564099535365635e+00
5.160000000000000000e+02,-5.958732317387885891e-01
5.162500000000000000e+02,4.759655095851304529e-01
5.165000000000000000e+02,4.062075580685932108e-01
5.167500000000000000e+02,-7.184223416228363579e-01
5.170000000000000000e+02,-6.229669035652622977e-01
5.172500000000000000e+02,8.451896701483245788e-01
5.175000000000000000e+02,8.123645485818744572e-01
5.177500000000000000e+02,-8.804368316962715157e-01
5.180000000000000000e+02,-7.326482637967681733e-01
5.182500000000000000e+02,7.522460046798455924e-01
5.185000000000000000e+02,5.559982233886292535e-01
5.187500000000000000e+02,-9.424785019327757141e-01
5.190000000000000000e+02,-7.927955849577968950e-01
5.192500000000000000e+02,8.395476695822073898e-01
5.195000000000000000e+02,4.873691336757460801e-01
5.197500000000000000e+02,-7.575758562032737231e-01
5.200000000000000000e+02,-5.888694127399529687e-01
5.202500000000000000e+02,5.059149314986242096e-01
5.205000000000000000e+02,7.513620334556017077e-01
5.207500000000000000e+02,-7.197465905627690175e-01
5.210000000000000000e+02,-4.392197506533409013e-01
5.212500000000000000e+02,7.635226568922456325e-01
5.215000000000000000e+02,7.147045309772004362e-01
5.217500000000000000e+02,-7.571663879516250528e-01
5.220000000000000000e+02,-7.831031282836088403e-01
5.222500000000000000e+02,8.885489454415167465e-01
5.225000000000000000e+02,8.370592439778991034e-01
5.227500000000000000e+02,-9.089703529310283470e-01
5.230000000000000000e+02,-6.522368271295487796e-01
5.232500000000000000e+02,1.034374956858639782e+00
5.235000000000000000e+02,6.149635784444491549e-01
5.237500000000000000e+02,-7.831801043459342138e-01
5.240000000000000000e+02,-8.103522577733234256e-01
5.242500000000000000e+02,8.838728737615295650e-01
5.245000000000000000e+02,5.254236281337573145e-01
5.247500000000000000e+02,-7.466036042385703064e-01
5.250000000000000000e+02,-4.491075010656248589e-01
5.252500000000000000e+02,1.061781684253573887e+00
5.255000000000000000e+02,4.541223264466369702e-01
5.257500000000000000e+02,-7.916063638174001271e-01
5.260000000000000000e+02,-6.814804460265118102e-01
5.262500000000000000e+02,6.538532356468533813e-01
5.265000000000000000e+02,5.072748516227421067e-01
5.267500000000000000e+02,-6.216998192994604988e-01
5.270000000000000000e+02,-5.658011535054846552e-01
5.272500000000000000e+02,6.321126348703375308e-01
5.275000000000000000e+02,6.123350242833421886e-01
5.277500000000000000e+02,-9.124831442969824069e-01
5.280000000000000000e+02,-6.260856519570697776e-01
5.282500000000000000e+02,7.560591254341912926e-01
5.285000000000000000e+02,5.317134096013593769e-01
5.287500000000000000e+02,-7.792102998810144232e-01
5.290000000000000000e+02,-7.926463082782315706e-01
5.292500000000000000e+02,5.873184466739076459e-01
5.295000000000000000e+02,2.160796351604679089e-01
5.297500000000000000e+02,-6.750950399158056614e-01
5.300000000000000000e+02,-5.227719018775791593e-01
5.302500000000000000e+02,8.233891083052807813e-01
5.305000000000000000e+02,5.938687583813274662e-01
5.307500000000000000e+02,-9.685591396510175866e-01
5.310000000000000000e+02,-5.665151592474514386e-01
5.312500000000000000e+02,5.434732686294001525e-01
5.315000000000000000e+02,6.052775823427479773e-01
5.317500000000000000e+02,-6.833396816618463321e-01
5.320000000000000000e+02,-4.853754688352818758e-01
5.322500000000000000e+02,1.045003202314078949e+00
5.325000000000000000e+02,4.112346850068636650e-01
5.327500000000000000e+02,-7.687722229466099622e-01
5.330000000000000000e+02,-3.224402979068197173e-01
5.332500000000000000e+02,9.286241316712160465e-01
5.335000000000000000e+02,6.365775513598672664e-01
5.337500000000000000e+02,-6.992300757972437220e-01
5.340000000000000000e+02,-6.035254117411602559e-01
5.342500000000000000e+02,3.587728049302694178e-01
5.345000000000000000e+02,9.173762678824841643e-01
5.347500000000000000e+02,-7.144060015236312067e-01
5.350000000000000000e+02,-1.107362422466651841e+00
5.352500000000000000e+02,9.334084482422787543e-01
5.355000000000000000e+02,7.514965356614340397e-01
5.357500000000000000e+02,-1.355663217155351097e+00
5.360000000000000000e+02,-8.547794008535108956e-01
5.362500000000000000e+02,8.942045192968978151e-01
5.365000000000000000e+02,9.115452021236876146e-01
5.367500000000000000e+02,-7.303700483634901763e-01
5.370000000000000000e+02,-2.254889009769883434e-01
5.372500000000000000e+02,1.026584963587003463e+00
5.375000000000000000e+02,3.085690867511513558e-01
5.377500000000000000e+02,-4.969561164846647561e-01
5.380000000000000000e+02,-6.214920712849617557e-01
5.382500000000000000e+02,6.502667005053017757e-01
5.385000000000000000e+02,5.181911249642999762e-01
5.387500000000000000e+02,-6.931265356397288135e-01
5.390000000000000000e+02,-3.686256717011017758e-01
5.392500000000000000e+02,6.825521661423850084e-01
5.395000000000000000e+02,5.822321889350706714e-01
5.397500000000000000e+02,-6.047676057111116554e-01
5.400000000000000000e+02,-4.081530836536874096e-01
5.402500000000000000e+02,9.262009412455423085e-01
5.405000000000000000e+02,6.429669603646572806e-01
5.407500000000000000e+02,-5.481074489446073894e-01
5.410000000000000000e+02,-6.238321714991788003e-01
5.412500000000000000e+02,9.984342383948802135e-01
5.415000000000000000e+02,6.785934684656511617e-01
5.417500000000000000e+02,-1.090221711530517723e+00
5.420000000000000000e+02,-6.099854121476062652e-01
5.422500000000000000e+02,1.137290910592875903e+00
5.425000000000000000e+02,5.542294691981500820e-01
5.427500000000000000e+02,-1.035425264704798343e+00
5.430000000000000000e+02,-6.456256918461223959e-01
5.432500000000000000e+02,1.169168072466210351e+00
5.435000000000000000e+02,5.820713655810038079e-01
5.437500000000000000e+02,-9.925389297868311145e-01
5.440000000000000000e+02,-4.314035272204564953e-01
5.442500000000000000e+02,7.253863895556312835e-01
5.445000000000000000e+02,6.358098531303313372e-01
5.447500000000000000e+02,-7.379806453665120891e-01
5.450000000000000000e+02,-6.215808662273510921e-01
5.452500000000000000e+02,8.615452999117784172e-01
5.455000000000000000e+02,4.981563095357853799e-01
5.457500000000000000e+02,-8.718741739392302792e-01
5.460000000000000000e+02,-8.025470522356097369e-01
5.462500000000000000e+02,1.025227690337965791e+00
5.465000000000000000e+02,4.874208130072116840e-01
5.467500000000000000e+02,-7.315594612304195943e-01
5.470000000000000000e+02,-5.890697953959174171e-01
5.472500000000000000e+02,8.854333232105243701e-01
5.475000000000000000e+02,4.684575337833966624e-01
5.477500000000000000e+02,-6.217584035353513894e-01
5.480000000000000000e+02,-6.468438024969858091e-01
5.482500000000000000e+02,6.901559364278682107e-01
5.485000000000000000e+02,5.880142284135581043e-01
5.487500000000000000e+02,-7.843767462641768606e-01
5.490000000000000000e+02,-4.481548507516340263e-01
5.492500000000000000e+02,8.557571629298273974e-01
5.495000000000000000e+02,7.631285689828989360e-01
5.497500000000000000e+02,-8.428526298653346016e-01
5.500000000000000000e+02,-6.381428131731885500e-01
5.502500000000000000e+02,6.916143547929075597e-01
5.505000000000000000e+02,5.945284450309591406e-01
5.507500000000000000e+02,-7.012372934054469376e-01
5.510000000000000000e+02,-6.502426314886666781e-01
5.512500000000000000e+02,7.513843696570419173e-01
5.515000000000000000e+02,5.084802345137567903e-01
5.517500000000000000e+02,-7.441497201525233418e-01
5.520000000000000000e+02,-7.891072121437676667e-01
5.522500000000000000e+02,1.273647262218970289e+00
5.525000000000000000e+02,6.418361658202197395e-01
5.527500000000000000e+02,-9.270701987069359662e-01
5.530000000000000000e+02,-6.934036846844207069e-01
5.532500000000000000e+02,8.279064879109752084e-01
5.535000000000000000e+02,6.065214477852920449e-01
5.537500000000000000e+02,-8.129001928191103010e-01
5.540000000000000000e+02,-7.234030105032266400e-01
5.542500000000000000e+02,9.727382505709719629e-01
5.545000000000000000e+02,5.877384106010072884e-01
5.547500000000000000e+02,-8.063576225532559372e-01
5.550000000000000000e+02,-9.239098017262972196e-01
5.552500000000000000e+02,1.051601619100705376e+00
5.555000000000000000e+02,3.827931313955982295e-01
5.557500000000000000e+02,-8.204894477948819764e-01
5.560000000000000000e+02,-5.850489190738576983e-01
5.562500000000000000e+02,4.789730669520523842e-01
5.565000000000000000e+02,7.722675998188229807e-01
5.567500000000000000e+02,-6.991222443574837131e-01
5.570000000000000000e+02,-3.238384100279536049e-01
5.572500000000000000e+02,8.016079881540059127e-01
5.575000000000000000e+02,5.210863349196717120e-01
5.577500000000000000e+02,-7.655976035787703804e-01
5.580000000000000000e+02,-5.596147059030311954e-01
5.582500000000000000e+02,6.253906743645707422e-01
5.585000000000000000e+02,5.040456849575816189e-01
5.587500000000000000e+02,-7.596290906715907898e-01
5.590000000000000000e+02,-4.716394941769415095e-01
5.592500000000000000e+02,7.387423287059443622e-01
5.595000000000000000e+02,4.815408081133256690e-01
5.597500000000000000e+02,-8.455580051264963704e-01
5.600000000000000000e+02,-6.392376927917828855e-01
5.602500000000000000e+02,8.454523872446378929e-01
5.605000000000000000e+02,5.901880625607754949e-01
5.607500000000000000e+02,-8.987233912428138627e-01
5.610000000000000000e+02,-7.487425380331041991e-01
5.612500000000000000e+02,7.293275337629978594e-01
5.615000000000000000e+02,5.056436965259850647e-01
5.617500000000000000e+02,-9.647602338401684019e-01
5.620000000000000000e+02,-3.416264098199888188e-01
5.622500000000000000e+02,1.008647757759809194e+00
5.625000000000000000e+02,5.542492845139090907e-01
5.627500000000000000e+02,-8.161401613348485684e-01
5.630000000000000000e+02,-9.406931739206407794e-01
5.632500000000000000e+02,8.847264309704501173e-01
5.635000000000000000e+02,1.011484131414161380e+00
5.637500000000000000e+02,-1.194076272891617441e+00
5.640000000000000000e+02,-3.690432899142390144e-01
5.642500000000000000e+02,7.229305030186350400e-01
5.645000000000000000e+02,5.828208226847164664e-01
5.647500000000000000e+02,-1.056942152996198647e+00
5.650000000000000000e+02,-6.513723145598960818e-01
5.652500000000000000e+02,9.967393344351174189e-01
5.655000000000000000e+02,7.655640516100175041e-01
5.657500000000000000e+02,-9.285681702348554944e-01
5.660000000000000000e+02,-5.522234798392433586e-01
5.662500000000000000e+02,7.860404358801482694e-01
5.665000000000000000e+02,7.006973232887627745e-01
5.667500000000000000e+02,-1.034297451977204574e+00
5.670000000000000000e+02,-7.593928087598466048e-01
5.672500000000000000e+02,7.815597493564697684e-01
5.675000000000000000e+02,7.565949229608940341e-01
5.677500000000000000e+02,-1.123390037221752902e+00
5.680000000000000000e+02,-7.722780916675113794e-01
5.682500000000000000e+02,1.078378689361316090e+00
5.685000000000000000e+02,6.772868506739674332e-01
5.687500000000000000e+02,-8.121023793546783276e-01
5.690000000000000000e+02,-2.791337881054771208e-01
5.692500000000000000e+02,8.630194243100233198e-01
5.695000000000000000e+02,6.791793435830387748e-01
5.697500000000000000e+02,-1.056445712108639245e+00
5.700000000000000000e+02,-5.983394198658217311e-01
5.702500000000000000e+02,9.311993033675637355e-01
5.705000000000000000e+02,4.859179041960219325e-01
5.707500000000000000e+02,-1.105456424131819215e+00
5.710000000000000000e+02,-7.980169836694707142e-01
5.712500000000000000e+02,6.893724909712469762e-01
5.715000000000000000e+02,7.246558851126609913e-01
5.717500000000000000e+02,-1.004141992718988075e+00
5.720000000000000000e+02,-2.450688991594269228e-01
5.722500000000000000e+02,8.484287317320955424e-01
5.725000000000000000e+02,5.857906278065242445e-01
5.727500000000000000e+02,-4.947984636839747874e-01
5.730000000000000000e+02,-5.233747579583598597e-01
5.732500000000000000e+02,9.505509435900145743e-01
5.735000000000000000e+02,3.565490406906545173e-01
5.737500000000000000e+02,-6.651053975004976859e-01
5.740000000000000000e+02,-3.725616735707946159e-01
5.742500000000000000e+02,8.714966027697551576e-01
5.745000000000000000e+02,4.370676854214938789e-01
5.747500000000000000e+02,-6.473190865619371515e-01
5.750000000000000000e+02,-6.991501978331240430e-01
5.752500000000000000e+02,7.554354067750995716e-01
5.755000000000000000e+02,5.139010060781797895e-01
5.757500000000000000e+02,-7.709618027887309433e-01
5.760000000000000000e+02,-3.529853167944116410e-01
5.762500000000000000e+02,7.490294186159899281e-01
5.765000000000000000e+02,8.278235062813922296e-01
5.767500000000000000e+02,-7.306619809891283790e-01
5.770000000000000000e+02,-3.911630196150571726e-01
5.772500000000000000e+02,6.697307940393051329e-01
5.775000000000000000e+02,6.030664328376786898e-01
5.777500000000000000e+02,-7.631882446980603474e-01
5.780000000000000000e+02,-4.345165995344204557e-01
5.782500000000000000e+02,7.858793464522276784e-01
5.785000000000000000e+02,6.809446802577439062e-01
5.787500000000000000e+02,-8.737112497594844429e-01
5.790000000000000000e+02,-1.099243620193983695e+00
5.792500000000000000e+02,6.756556512294564776e-01
5.795000000000000000e+02,3.666717789555637430e-01
5.797500000000000000e+02,-9.408946793829883193e-01
5.800000000000000000e+02,-6.052357641901883190e-01
5.802500000000000000e+02,6.088430377998502729e-01
5.805000000000000000e+02,4.698831502695403617e-01
5.807500000000000000e+02,-7.530681047089818891e-01
5.810000000000000000e+02,-8.721706924763777957e-01
5.812500000000000000e+02,9.291427676013725989e-01
5.815000000000000000e+02,2.158763524074788775e-01
5.817500000000000000e+02,-5.043806015020906308e-01
5.820000000000000000e+02,-5.000764197148642731e-01
5.822500000000000000e+02,6.776955651136979952e-01
5.825000000000000000e+02,4.971488552370252334e-01
5.827500000000000000e+02,-9.570581390819854484e-01
5.830000000000000000e+02,-5.199064679616568485e-01
5.832500000000000000e+02,8.689655842586795353e-01
5.835000000000000000e+02,5.756896710225168912e-01
5.837500000000000000e+02,-1.052000421092246896e+00
5.840000000000000000e+02,-6.019887793809662879e-01
5.842500000000000000e+02,7.761049125732466525e-01
5.845000000000000000e+02,3.673345671558332914e-01
5.847500000000000000e+02,-8.595524962290742588e-01
5.850000000000000000e+02,-7.040699578519395985e-01
5.852500000000000000e+02,9.730807552480896794e-01
5.855000000000000000e+02,5.580481953480874724e-01
5.857500000000000000e+02,-7.823909001823663445e-01
5.860000000000000000e+02,-8.000362469659278997e-01
5.862500000000000000e+02,9.193484159218973106e-01
5.865000000000000000e+02,6.170436692071958884e-01
5.867500000000000000e+02,-7.359711725043308617e-01
5.870000000000000000e+02,-5.835090795998046920e-01
5.872500000000000000e+02,7.000290902035544160e-01
5.875000000000000000e+02,5.141684742108092454e-01
5.877500000000000000e+02,-7.669944791511200677e-01
5.880000000000000000e+02,-3.226501341830113612e-01
5.882500000000000000e+02,6.978531224234578723e-01
5.885000000000000000e+02,7.424543883194951732e-01
5.887500000000000000e+02,-6.274915364743069990e-01
5.890000000000000000e+02,-6.391561678198676155e-01
5.892500000000000000e+02,7.608763868586470025e-01
5.895000000000000000e+02,7.380053984475912765e-01
5.897500000000000000e+02,-9.293660164407295809e-01
5.900000000000000000e+02,-5.196376768305339677e-01
5.902500000000000000e+02,9.701887223852749820e-01
5.905000000000000000e+02,4.488974001515012024e-01
5.907500000000000000e+02,-4.784223348539826670e-01
5.910000000000000000e+02,-7.253318305921151454e-01
5.912500000000000000e+02,5.018354243692241257e-01
5.915000000000000000e+02,5.143544636790684521e-01
5.917500000000000000e+02,-5.281540352172393593e-01
5.920000000000000000e+02,-7.506429877406497475e-01
5.922500000000000000e+02,6.440731606973758572e-01
5.925000000000000000e+02,7.005731517958430077e-01
5.927500000000000000e+02,-8.947033289007023660e-01
5.930000000000000000e+02,-7.224365534604580974e-01
5.932500000000000000e+02,5.847560884359700450e-01
5.935000000000000000e+02,5.371353744401048402e-01
5.937500000000000000e+02,-6.799869180007144243e-01
5.940000000000000000e+02,-5.134537262065546059e-01
